0,0.040797000111212
0.0033335920923252,-0.0244090615207296
0.00666718418465043,0.00845900652210326
0.0100007762769756,-0.0429726858081655
0.0133343683693008,0.0173247389109813
0.016667960461626,0.0725589968880512
0.0200015525539513,0.0422864669265912
0.0233351446462765,0.0115282604778834
0.0266687367386017,-0.0602628310200401
0.0300023288309269,-0.0699694439558676
0.033335920923252,0.0638725539663181
0.0366695130155773,0.0840178131838254
0.0400031051079027,0.0772395139828542
0.0433366972002277,0.0470025968648439
0.046670289292553,-0.0511232783752809
0.050003881384878,0.093094854954917
0.0533374734772033,0.0110800495516505
0.0566710655695287,-0.0134438515414384
0.0600046576618537,-0.0102480920005596
0.063338249754179,0.108631172247965
0.0666718418465043,0.033571726769741
0.0700054339388293,-0.060085080983989
0.0733390260311547,0.00886744474987102
0.0766726181234797,-0.068628740041093
0.080006210215805,-0.00227725327643501
0.0833398023081303,0.083549612136112
0.0866733944004553,-0.0388159163048244
0.0900069864927807,-0.0304176128832796
0.093340578585106,-0.0142481385652136
0.096674170677431,-0.0888538749745219
0.100007762769756,0.0537159329797167
0.103341354862081,-0.0026962488293243
0.106674946954407,0.0642513715972437
0.110008539046732,-0.0529230818893158
0.113342131139057,0.0563863633947264
0.116675723231382,-0.0615502930780287
0.120009315323708,-0.0440278796723421
0.123342907416033,-0.0780290091862584
0.126676499508358,-0.0442648777224324
0.130010091600683,0.0305351997165307
0.133343683693008,-0.0220166502923768
0.136677275785334,0.0185610999787819
0.140010867877659,0.00369653774280605
0.143344459969984,-0.0261180818639735
0.146678052062309,0.0427128833034348
0.150011644154634,0.034315599401728
0.15334523624696,0.0719621719291527
0.156678828339285,-0.0084863533604664
0.16001242043161,-0.00698804624717526
0.163346012523935,0.00365574231127226
0.16667960461626,0.0186552114186481
0.170013196708586,0.0278718565196434
0.173346788800911,-0.00964677366194251
0.176680380893236,0.0376027881598487
0.180013972985561,0.0530955306985833
0.183347565077886,0.0167409230011804
0.186681157170212,0.104367253696919
0.190014749262537,-0.054145085438776
0.193348341354862,0.0216379028998804
0.196681933447187,1.13619140716043
0.200015525539513,1.17362113702542
0.203349117631838,1.18408445564738
0.206682709724163,1.06777569103363
0.210016301816488,1.15117366798065
0.213349893908813,1.20511826934959
0.216683486001139,1.15327064622992
0.220017078093464,1.17828051431871
0.223350670185789,1.18427664615293
0.226684262278114,-0.0792630071518567
0.230017854370439,-0.097986648131144
0.233351446462765,-0.0534178802089289
0.23668503855509,-0.111468173185515
0.240018630647415,0.0445587478426442
0.24335222273974,0.0264099577026578
0.246685814832065,0.00422094601047088
0.250019406924391,-0.0630655863256926
0.253352999016716,0.0353345119604111
0.256686591109041,0.0389383862260203
0.260020183201366,0.0493698840743803
0.263353775293691,0.00599828800143173
0.266687367386017,-0.0278149226018527
0.270020959478342,-0.00731898421319159
0.273354551570667,-0.0191278246806932
0.276688143662992,-0.035634041959139
0.280021735755318,-0.0343756537050694
0.283355327847643,-0.0706129691064657
0.286688919939968,0.0211178087389916
0.290022512032293,-0.0249509463317467
0.293356104124618,-0.040280198707825
0.296689696216944,-0.0280004875191568
0.300023288309269,-0.0126825400459841
0.303356880401594,-0.0446711333187334
0.306690472493919,-0.00141377951655772
0.310024064586244,-0.0486067523499627
0.31335765667857,0.0736297364210147
0.316691248770895,0.061501209708669
0.32002484086322,0.0452642177572161
0.323358432955545,0.00618393277533677
0.32669202504787,-0.036757318868785
0.330025617140196,0.0904682633030538
0.33335920923252,0.106116953858857
0.336692801324847,-0.125059072292561
0.34002639341717,0.0812653221790006
0.343359985509497,-0.0117214533712101
0.346693577601823,0.0428254096228297
0.350027169694147,0.0467515359365472
0.353360761786473,0.0880758418080508
0.356694353878797,0.104274645605504
0.360027945971123,-0.0298547722613309
0.363361538063447,-0.0329897166066098
0.366695130155773,0.0342684348042557
0.370028722248097,0.00196056482740988
0.373362314340423,0.0402275219985585
0.37669590643275,0.0656591636723173
0.380029498525073,0.104296161375332
0.3833630906174,0.114917351917507
0.386696682709723,0.0484621077704074
0.39003027480205,0.0288511170020583
0.393363866894373,0.146849597910064
0.3966974589867,0.1192432019824
0.400031051079027,0.0389390775194793
0.40336464317135,0.10368082623602
0.406698235263677,0.163462263300603
0.410031827356,0.0146342642989697
0.413365419448327,0.00687565136068551
0.41669901154065,0.117113777692935
0.420032603632977,0.0829112799406741
0.4233661957253,0.104559270190816
0.426699787817627,0.100589230821799
0.430033379909953,0.060230765707621
0.433366972002277,0.146092965023369
0.436700564094603,0.181121951298189
0.440034156186927,0.120505448970192
0.443367748279253,0.114985588343009
0.446701340371577,0.00151343929500958
0.450034932463903,0.113701687714647
0.45336852455623,0.160264827182659
0.456702116648553,-0.0228979584658412
0.46003570874088,0.0843808379960665
0.463369300833203,0.0676629986230989
0.46670289292553,0.081152693367202
0.470036485017853,0.0856419019226162
0.47337007711018,0.111569267622312
0.476703669202503,0.204245232546762
0.48003726129483,0.121124984235339
0.483370853387157,0.151423720574145
0.48670444547948,0.12823079527769
0.490038037571807,0.0559339921657808
0.49337162966413,0.135371568698075
0.496705221756457,0.0848061036437437
0.50003881384878,0.203419155325699
0.503372405941107,0.253401817302496
0.50670599803343,0.0676232336144812
0.510039590125757,0.0760145166683987
0.513373182218083,0.155558297376994
0.516706774310407,0.12654598930532
0.520040366402733,0.112209452486086
0.523373958495057,0.0845239490420094
0.526707550587383,0.130663626942004
0.530041142679707,0.110746558621307
0.533374734772033,0.0808389894060038
0.53670832686436,0.197460990382895
0.540041918956683,0.195663766092365
0.54337551104901,0.157736962361668
0.546709103141333,0.151825691031833
0.55004269523366,0.224962976662122
0.553376287325983,0.249018475616961
0.55670987941831,0.135517136512301
0.560043471510637,0.190396025104049
0.56337706360296,0.0999579537853028
0.566710655695287,0.282775475188402
0.57004424778761,0.263307589715906
0.573377839879937,0.286250322313116
0.57671143197226,0.148945791433221
0.580045024064587,0.130931175660611
0.58337861615691,0.137541321577368
0.586712208249237,0.0862048450145811
0.590045800341563,0.0793680926108665
0.593379392433887,0.283839073108055
0.596712984526213,0.234852307613118
0.600046576618537,0.197044349985463
0.603380168710863,0.213509954800245
0.606713760803187,0.174136847533517
0.610047352895513,0.277662563483651
0.613380944987837,0.0977575053004661
0.616714537080163,0.12809567706804
0.62004812917249,0.107439660933933
0.623381721264813,0.112818378186169
0.62671531335714,0.197110096709845
0.630048905449463,0.151857851810983
0.63338249754179,0.133710327862149
0.636716089634113,0.124347750123709
0.64004968172644,0.251089943292045
0.643383273818767,0.107869477523766
0.64671686591109,0.172192764559049
0.650050458003417,0.0795374570299778
0.65338405009574,0.176931057654295
0.656717642188067,0.24239631194587
0.66005123428039,0.134518537854169
0.663384826372717,0.188124365242183
0.666718418465043,0.179846651532335
0.670052010557367,0.0822448942301525
0.673385602649693,0.0854761409570014
0.676719194742017,0.116193585875184
0.680052786834343,0.0723708595448327
0.683386378926667,0.105512065026235
0.686719971018993,0.189810075772167
0.690053563111317,0.167998223235582
0.693387155203643,0.0988694982799612
0.69672074729597,0.126876753865129
0.700054339388293,0.116124157613562
0.70338793148062,0.0896702992043145
0.706721523572943,0.0668440660235237
0.71005511566527,0.0354254570548766
0.713388707757593,0.0422810580716382
0.71672229984992,0.0556108516862849
0.720055891942243,0.153667891727393
0.72338948403457,0.0936624968760669
0.726723076126897,0.0900592172744236
0.73005666821922,0.0620272110494153
0.733390260311547,0.133210246841498
0.73672385240387,0.082832618997795
0.740057444496197,0.0727821533098109
0.74339103658852,0.016983520381015
0.746724628680847,0.0483227881579232
0.750058220773173,0.19631442432536
0.753391812865497,0.157078984461423
0.756725404957823,0.178956466564578
0.760058997050147,0.0902792681997099
0.763392589142473,0.147357793304295
0.766726181234797,0.0603761833524551
0.770059773327123,0.0674840516263264
0.77339336541945,-0.0391914352250058
0.776726957511773,0.00885518112109292
0.7800605496041,0.0506186632628199
0.783394141696423,-0.0267289565164531
0.78672773378875,0.0516637459642377
0.790061325881073,0.0778955788603015
0.7933949179734,0.0939536596436549
0.796728510065723,-0.0366404439980031
0.80006210215805,0.0434579069628686
0.803395694250377,-0.0632574365262364
0.8067292863427,0.0440207075025764
0.810062878435027,0.0623335582830081
0.81339647052735,0.0153243460960841
0.816730062619677,-0.0091620178137274
0.820063654712,0.107662173161747
0.823397246804327,-0.0163183060573767
0.82673083889665,-0.0176134024194807
0.830064430988977,0.0112139894811186
0.833398023081303,-0.0458707793399168
0.836731615173627,0.0285623210787207
0.840065207265953,-0.0166637344518341
0.843398799358277,-0.051942766721818
0.846732391450603,-0.0301875488712853
0.850065983542927,-0.0458847163507162
0.853399575635253,0.0436607487570912
0.85673316772758,0.0992759048343345
0.860066759819903,-0.00842866569726709
0.86340035191223,0.0336361640953594
0.866733944004553,-0.069814505165555
0.87006753609688,-0.143768873170555
0.873401128189203,0.0776338807312742
0.87673472028153,-0.0441635795347822
0.880068312373857,0.0306791779488747
0.88340190446618,0.0490369993444104
0.886735496558507,-0.0309403575947719
0.89006908865083,-0.0448792049851136
0.893402680743157,0.0389295820604965
0.89673627283548,-0.0783818810903275
0.900069864927807,0.0313686877413324
0.90340345702013,0.0755688646073952
0.906737049112457,0.0389957570572552
0.910070641204783,0.0140452744938846
0.913404233297107,-0.0238821847309064
0.916737825389433,0.0063978792734998
0.920071417481757,-0.0698282861540909
0.923405009574083,-0.0205558434233093
0.926738601666407,-0.0111343533102834
0.930072193758733,0.0123914392635139
0.93340578585106,-0.0147156170889775
0.936739377943383,0.0598106086099328
0.94007297003571,-0.0231257141720704
0.943406562128033,-0.0670694638213317
0.94674015422036,-0.0674237299741231
0.950073746312683,-0.0332381991453637
0.95340733840501,0.0603439405916328
0.956740930497333,-0.071201039562156
0.96007452258966,-0.0215545850440397
0.963408114681987,0.0539059840564967
0.96674170677431,-0.095158343825203
0.970075298866637,0.0524253014335679
0.97340889095896,0.0110817048342477
0.976742483051287,0.00185853928044949
0.98007607514361,-0.0192632622447464
0.983409667235937,0.00459849237372648
0.986743259328263,0.0109401829656625
0.990076851420587,-0.0229907771476704
0.993410443512913,-0.0474632948543181
0.996744035605237,0.0367224456306847
1.00007762769756,0.122054341818744
1.00341121978989,-0.0208219538271105
1.00674481188221,0.0910034226105068
1.01007840397454,-0.0948505566029695
1.01341199606686,0.0480204372630311
1.01674558815919,-0.092931372197329
1.02007918025151,-0.0321344059825931
1.02341277234384,0.04757439313029
1.02674636443616,-0.00317882352472658
1.03007995652849,0.0393123034235828
1.03341354862081,0.0546006791356008
1.03674714071314,-0.0417987810439508
1.04008073280547,-0.031888946600612
1.04341432489779,0.0493969578902323
1.04674791699012,0.0697662244380548
1.05008150908244,-0.0834939059377295
1.05341510117477,-0.0100486780962294
1.05674869326709,-0.060428247263433
1.06008228535942,1.13266680044868
1.06341587745174,1.13841776407765
1.06674946954407,1.16806872327886
1.07008306163639,1.1173091446328
1.07341665372872,1.08173384420106
1.07675024582104,1.16106021433324
1.08008383791337,1.20265369444355
1.08341743000569,1.02747561508859
1.08675102209802,1.11945553271083
1.09008461419034,1.07325497213999
1.09341820628267,1.17038293882728
1.09675179837499,0.043263898066723
1.10008539046732,0.0847722183957854
1.10341898255964,0.0459824121145988
1.10675257465197,0.0793635568305855
1.11008616674429,-0.0428932470360934
1.11341975883662,-0.00590906534501408
1.11675335092894,0.0452454268583425
1.12008694302127,-0.0545226722306145
1.1234205351136,-0.0444129903698525
1.12675412720592,-0.0381530567693262
1.13008771929825,0.00585672154389536
1.13342131139057,0.064642392905264
1.1367549034829,-0.0474275807466287
1.14008849557522,0.062795710503776
1.14342208766755,0.0147930023167624
1.14675567975987,-0.16496999071222
1.1500892718522,-0.0675523532363154
1.15342286394452,-0.136286621454427
1.15675645603685,-0.0684835551355561
1.16009004812917,-0.0568490074838056
1.1634236402215,-0.0765237196592469
1.16675723231382,0.0107223639715003
1.17009082440615,-0.0287797544033909
1.17342441649847,0.0164473011581899
1.1767580085908,0.122287338022965
1.18009160068312,0.104368649600791
1.18342519277545,-0.0242823543561314
1.18675878486777,-0.0724096072619464
1.1900923769601,-0.056184238105537
1.19342596905242,-0.0326167938030674
1.19675956114475,0.0852753954534762
1.20009315323708,-0.017935443882257
1.2034267453294,-0.147989235635722
1.20676033742173,0.104603918521408
1.21009392951405,0.0425618056492819
1.21342752160638,0.0775751048183099
1.2167611136987,0.044707966444077
1.22009470579103,-0.0394036955868376
1.22342829788335,0.0167785306257067
1.22676188997568,0.104999385365428
1.230095482068,0.114811901993511
1.23342907416033,0.110914405978021
1.23676266625265,-0.00602715722469435
1.24009625834498,0.0450418959926868
1.2434298504373,0.0514964385053213
1.24676344252963,0.0308103790450061
1.25009703462195,0.0276555902380819
1.25343062671428,0.0616558749756615
1.2567642188066,0.0850894251974657
1.26009781089893,0.106914198388817
1.26343140299125,0.0897853336188528
1.26676499508358,0.0833668979981719
1.2700985871759,0.153750637382938
1.27343217926823,0.170665329795369
1.27676577136055,0.139673862263368
1.28009936345288,0.167680864337696
1.28343295554521,0.038650948392182
1.28676654763753,0.0581676015723834
1.29010013972986,0.134608308070159
1.29343373182218,0.0525297060911801
1.29676732391451,-0.0218199164749259
1.30010091600683,0.156503638882818
1.30343450809916,0.172911564041641
1.30676810019148,0.0722113926310409
1.31010169228381,0.164565424766561
1.31343528437613,0.0527031845434415
1.31676887646846,0.105843798121725
1.32010246856078,0.0406362436721827
1.32343606065311,0.0605118213530466
1.32676965274543,0.203757690266426
1.33010324483776,0.148054535742057
1.33343683693008,0.120746299382119
1.33677042902241,0.0281586344447902
1.34010402111473,0.0996193875718769
1.34343761320706,0.110396182398709
1.34677120529938,0.187278366304706
1.35010479739171,0.280579023221198
1.35343838948403,0.170459839360193
1.35677198157636,0.140119946107252
1.36010557366869,0.00434716670944849
1.36343916576101,0.151508072818751
1.36677275785334,0.171737091699298
1.37010634994566,0.041911278424306
1.37343994203799,0.107506128790921
1.37677353413031,0.135020052325705
1.38010712622264,0.132999851041576
1.38344071831496,0.206281995768539
1.38677431040729,0.147748926551592
1.39010790249961,0.0936311663814902
1.39344149459194,0.217950287419607
1.39677508668426,0.198754883043751
1.40010867877659,0.128535439054346
1.40344227086891,0.130889218529377
1.40677586296124,0.120572301370018
1.41010945505356,0.182922059935807
1.41344304714589,0.173760027901302
1.41677663923821,0.0352430034580059
1.42011023133054,0.290955400327794
1.42344382342286,0.211583405484208
1.42677741551519,0.150167430134783
1.43011100760751,0.196916408329867
1.43344459969984,0.219649581009337
1.43677819179216,0.16998838545359
1.44011178388449,0.258474071096057
1.44344537597682,0.187184287129615
1.44677896806914,0.254734406791239
1.45011256016147,0.0552170627731595
1.45344615225379,0.336344060243545
1.45677974434612,0.125236966473081
1.46011333643844,0.188334490713277
1.46344692853077,0.273916901046752
1.46678052062309,0.189785474095975
1.47011411271542,0.0980301492699514
1.47344770480774,0.199116849390498
1.47678129690007,0.283245055199665
1.48011488899239,0.246323669990543
1.48344848108472,0.147873699612047
1.48678207317704,0.0707571562441131
1.49011566526937,0.259437577691586
1.49344925736169,0.212574436446682
1.49678284945402,0.111004025245734
1.50011644154634,0.236561545312176
1.50345003363867,0.230607101120991
1.50678362573099,0.183150998635595
1.51011721782332,0.204664677857626
1.51345080991564,0.143223289536401
1.51678440200797,0.281483321018128
1.5201179941003,0.107453237811931
1.52345158619262,0.127268004402077
1.52678517828495,0.103268798305663
1.53011877037727,0.170483865014563
1.5334523624696,0.203530130173221
1.53678595456192,0.205411572616133
1.54011954665425,0.214318664963401
1.54345313874657,0.0838682075921216
1.5467867308389,0.140977115585799
1.55012032293122,0.176129231678204
1.55345391502355,0.191800055137264
1.55678750711587,0.134281056601584
1.5601210992082,0.0901139951075839
1.56345469130052,0.142879224375251
1.56678828339285,0.0879678596665229
1.57012187548517,0.111653091147284
1.5734554675775,0.171030167268182
1.57678905966982,0.183184783261392
1.58012265176215,0.0596493536656678
1.58345624385447,0.0936223393360805
1.5867898359468,0.149859439024176
1.59012342803912,0.0938859782909734
1.59345702013145,0.239308429151701
1.59679061222377,0.0867998892121508
1.6001242043161,0.174965281271663
1.60345779640843,0.171908633885006
1.60679138850075,0.0793228498048871
1.61012498059308,0.160135569253421
1.6134585726854,0.0597528174701799
1.61679216477773,-0.0533108925505207
1.62012575687005,0.142889640374379
1.62345934896238,0.118144571637802
1.6267929410547,0.127383731080633
1.63012653314703,0.0782772316024435
1.63346012523935,0.0551149287273064
1.63679371733168,0.101086986988271
1.640127309424,0.0238364452915729
1.64346090151633,0.0297524958251161
1.64679449360865,0.0410030837367811
1.65012808570098,0.0684074726867548
1.6534616777933,0.109045981754832
1.65679526988563,0.0608601893472775
1.66012886197795,0.103297891590214
1.66346245407028,0.109226382983814
1.6667960461626,0.140012072888366
1.67012963825493,-0.0851859795956954
1.67346323034725,0.107712612426457
1.67679682243958,0.187638087241482
1.68013041453191,-0.033165057074487
1.68346400662423,0.000312921098576988
1.68679759871656,0.0807149434857102
1.69013119080888,0.0743525042807155
1.69346478290121,0.0680327451509154
1.69679837499353,0.076445759746851
1.70013196708586,0.105807572345033
1.70346555917818,-0.0389310778395912
1.70679915127051,0.0699393135638344
1.71013274336283,-0.0378467356066072
1.71346633545516,-0.0746757946174323
1.71679992754748,-0.0735380982407137
1.72013351963981,0.0157107539172373
1.72346711173213,0.0146975036144078
1.72680070382446,0.0833943316833171
1.73013429591678,0.0667960484275446
1.73346788800911,-0.0130519505616897
1.73680148010143,-0.0147839200993959
1.74013507219376,0.0431112526473725
1.74346866428608,-0.060769365743554
1.74680225637841,-0.0978759568724271
1.75013584847073,-0.0502540154720491
1.75346944056306,0.0151329760629292
1.75680303265538,0.0122635786564319
1.76013662474771,-0.0372476538406371
1.76347021684004,-0.0113316044520839
1.76680380893236,0.0380234026742919
1.77013740102469,-0.0589612986545597
1.77347099311701,-0.0523004323860902
1.77680458520934,0.0346045399438319
1.78013817730166,-0.0307330918218986
1.78347176939399,0.0986787205424119
1.78680536148631,0.0487029847072824
1.79013895357864,-0.0314422677266693
1.79347254567096,0.0446036071115171
1.79680613776329,0.10700730614212
1.80013972985561,-0.0768156022171693
1.80347332194794,0.05598325031697
1.80680691404026,0.0560821849871112
1.81014050613259,-0.0364237718029135
1.81347409822491,0.1062990907939
1.81680769031724,-0.0113690666252809
1.82014128240956,-0.0393129512805925
1.82347487450189,-0.0520501915787699
1.82680846659421,-0.0454479452315225
1.83014205868654,-0.0498029283402892
1.83347565077886,-0.054816596807465
1.83680924287119,0.00700310632638758
1.84014283496351,0.0687359822182051
1.84347642705584,0.0570658860482898
1.84681001914817,-0.0435186820553065
1.85014361124049,0.123275880663217
1.85347720333282,-0.0182014426355602
1.85681079542514,0.0413234009468896
1.86014438751747,-0.0606357505286157
1.86347797960979,-0.0460673260038689
1.86681157170212,-0.0148033934819617
1.87014516379444,-0.0851382048738404
1.87347875588677,0.168898108387591
1.87681234797909,-0.0261855050168722
1.88014594007142,-0.0427616602878456
1.88347953216374,0.0796460309538252
1.88681312425607,0.00520726297267375
1.89014671634839,0.0020383151924686
1.89348030844072,-0.0818019710292067
1.89681390053304,-0.0785986278652551
1.90014749262537,0.112938350357238
1.90348108471769,-0.0378476206085055
1.90681467681002,-0.0305093442126784
1.91014826890234,-0.0744519592678152
1.91348186099467,0.032560702308618
1.91681545308699,0.924263780783492
1.92014904517932,0.884302004664277
1.92348263727165,0.87716243450944
1.92681622936397,0.99958371074067
1.9301498214563,1.03531506365553
1.93348341354862,0.74756855521097
1.93681700564095,0.864627642825421
1.94015059773327,0.936553949478612
1.9434841898256,0.940842098928321
1.94681778191792,-0.0272703305066006
1.95015137401025,-0.0168525588515743
1.95348496610257,0.0509769686663875
1.9568185581949,0.0273630456310517
1.96015215028722,-0.0934501568643573
1.96348574237955,0.0400732435957152
1.96681933447187,0.00718488584593596
1.9701529265642,-0.0895107030778829
1.97348651865652,-0.0258530353160559
1.97682011074885,-0.0581019277970803
1.98015370284117,-0.0241099024676138
1.9834872949335,-0.0904114664697227
1.98682088702582,0.0070285311074987
1.99015447911815,0.0120433844599852
1.99348807121047,-0.0505245106987194
1.9968216633028,-0.0526410993082375
2.00015525539513,-0.0314218093189549
2.00348884748745,-0.0935015803946184
2.00682243957978,-0.0211027430731659
2.0101560316721,0.0266093802907443
2.01348962376443,-0.0380762917762401
2.01682321585675,0.0313534221908394
2.02015680794908,-0.0750804618094374
2.0234904000414,0.133036858726595
2.02682399213373,-0.00308170693258387
2.03015758422605,0.0632447753507527
2.03349117631838,0.10147088347863
2.0368247684107,0.0548980556801435
2.04015836050303,0.0488171603167465
2.04349195259535,0.0266336260614855
2.04682554468768,0.0177819203414683
2.05015913678,0.00270307829092899
2.05349272887233,-0.0371972011647947
2.05682632096465,-0.0210648227213783
2.06015991305698,0.0515203423663456
2.0634935051493,-0.0440199611924596
2.06682709724163,0.0782407864749182
2.07016068933395,0.00406046532299996
2.07349428142628,-0.00173199991538518
2.0768278735186,0.0392953715966529
2.08016146561093,0.089070305939428
2.08349505770326,0.062057508449209
2.08682864979558,-0.00313308795943752
2.09016224188791,0.0670040191275168
2.09349583398023,0.0396597196590191
2.09682942607256,0.0535840394215816
2.10016301816488,0.0347764386269121
2.10349661025721,0.0788898209819478
2.10683020234953,0.0299795368259888
2.11016379444186,-0.00788260827355918
2.11349738653418,0.0177722318129639
2.11683097862651,0.000920000769599812
2.12016457071883,-0.00487765238461582
2.12349816281116,0.0627684480110779
2.12683175490348,0.0562556318761084
2.13016534699581,0.109875429485104
2.13349893908813,0.207716025755848
2.13683253118046,0.0430953865055626
2.14016612327278,0.106798582599832
2.14349971536511,-0.00432309679965987
2.14683330745743,0.157211572130472
2.15016689954976,0.0266705142371157
2.15350049164208,0.0655851931430672
2.15683408373441,0.0690221456794079
2.16016767582674,-0.016603785834431
2.16350126791906,-0.00686643355343066
2.16683486001139,0.085656265793491
2.17016845210371,0.148823799495437
2.17350204419604,0.101341917097514
2.17683563628836,0.123296304689028
2.18016922838069,0.168681332101539
2.18350282047301,0.0789408456509875
2.18683641256534,0.138449059995263
2.19017000465766,0.0408835914580677
2.19350359674999,0.0340538536499401
2.19683718884231,0.156761474654936
2.20017078093464,-0.0108401941859803
2.20350437302696,0.0683792540755318
2.20683796511929,0.168254534940064
2.21017155721161,0.138510085912022
2.21350514930394,0.135295663120447
2.21683874139626,0.0713659544125771
2.22017233348859,0.159650748838944
2.22350592558091,0.045570105701397
2.22683951767324,0.0995436378224241
2.23017310976556,0.163200260342683
2.23350670185789,0.14461716968194
2.23684029395022,0.142453304385969
2.24017388604254,0.15849377995208
2.24350747813487,0.0826015014961881
2.24684107022719,0.152623422637729
2.25017466231952,0.163998985100021
2.25350825441184,0.180510586313062
2.25684184650417,0.0195307405533422
2.26017543859649,-0.00227538473138936
2.26350903068882,0.0858187424589131
2.26684262278114,0.140754214326023
2.27017621487347,0.233538298136443
2.27350980696579,0.120951592630653
2.27684339905812,0.167077408832309
2.28017699115044,0.120422093999953
2.28351058324277,0.248410226373988
2.28684417533509,0.120450669696247
2.29017776742742,0.186749225646278
2.29351135951974,0.208403284930012
2.29684495161207,0.175951652021574
2.30017854370439,0.117624800935873
2.30351213579672,0.091161235136758
2.30684572788904,0.204102457259332
2.31017931998137,0.0565086804058245
2.31351291207369,0.177422417642997
2.31684650416602,0.105302190627171
2.32018009625835,0.176856243745476
2.32351368835067,0.131963622009998
2.326847280443,0.109238070812125
2.33018087253532,0.226768016385011
2.33351446462765,0.0455898903421261
2.33684805671997,0.122005515844877
2.3401816488123,0.157424319378512
2.34351524090462,0.171237241890375
2.34684883299695,0.268867320356562
2.35018242508927,0.201271151065751
2.3535160171816,0.183758153807727
2.35684960927392,0.343697325490234
2.36018320136625,0.121273721019646
2.36351679345857,0.308081798564213
2.3668503855509,0.127777256805903
2.37018397764322,0.309392490528781
2.37351756973555,0.143002166357031
2.37685116182787,0.201470696560583
2.3801847539202,0.148584350363582
2.38351834601252,0.22902459245352
2.38685193810485,0.262657875200806
2.39018553019717,0.202992201208069
2.3935191222895,0.203538161057474
2.39685271438182,0.164005913003087
2.40018630647415,0.26178553333716
2.40351989856648,0.157914279289633
2.4068534906588,0.113629814648172
2.41018708275113,0.125061879247157
2.41352067484345,0.211424000775249
2.41685426693578,0.162399117664257
2.4201878590281,0.0772539847417242
2.42352145112043,0.25775013573845
2.42685504321275,0.214762982900231
2.43018863530508,0.07866326278709
2.4335222273974,0.227311324228423
2.43685581948973,0.152603382603657
2.44018941158205,0.0293134971235738
2.44352300367438,0.13642626599794
2.4468565957667,0.151348510068087
2.45019018785903,0.110804889258145
2.45352377995135,0.0775960066655615
2.45685737204368,0.221685510425619
2.460190964136,0.0686871818738763
2.46352455622833,0.145646506668329
2.46685814832065,0.0530996142167951
2.47019174041298,0.0916915261050089
2.4735253325053,0.125738079622413
2.47685892459763,0.112752284404569
2.48019251668995,0.147707247198187
2.48352610878228,0.0852853251394323
2.48685970087461,0.0605605527040284
2.49019329296693,0.208874328889732
2.49352688505926,0.0946513322128264
2.49686047715158,0.112711860390315
2.50019406924391,0.117635886906034
2.50352766133623,0.00106176993241884
2.50686125342856,0.114214093241275
2.51019484552088,0.156069941742082
2.51352843761321,0.155927436082475
2.51686202970553,0.103188635577087
2.52019562179786,0.0393524824263483
2.52352921389018,0.152761312628962
2.52686280598251,0.167653964096161
2.53019639807483,0.109897627359807
2.53352999016716,0.216881822933498
2.53686358225948,0.11134145648159
2.54019717435181,0.277195444483255
2.54353076644413,0.111997319131683
2.54686435853646,0.0599335432069807
2.55019795062878,0.171207094750564
2.55353154272111,0.134435098239177
2.55686513481343,0.15861512654738
2.56019872690576,0.100235185219036
2.56353231899809,0.00365894052838982
2.56686591109041,0.106310924317939
2.57019950318274,0.00992898324099172
2.57353309527506,-0.0182525875743788
2.57686668736739,0.0271768929110624
2.58020027945971,0.0796292162396195
2.58353387155204,0.0734038298428868
2.58686746364436,0.0743301835786929
2.59020105573669,0.124885316167941
2.59353464782901,0.0243266709405333
2.59686823992134,0.0748745101198602
2.60020183201366,0.00790167739673326
2.60353542410599,0.0895135117726289
2.60686901619831,-0.0215759074090017
2.61020260829064,0.0297003535085129
2.61353620038296,0.0773144724313062
2.61686979247529,0.0010573845599956
2.62020338456761,0.0342566291337417
2.62353697665994,0.107311006699215
2.62687056875226,0.0843225762498745
2.63020416084459,0.0821606802975137
2.63353775293691,0.0631544878689565
2.63687134502924,0.0073606646014721
2.64020493712157,0.0816052303613949
2.64353852921389,-0.0544040371048991
2.64687212130622,0.0182683888183335
2.65020571339854,0.0721879659063324
2.65353930549087,0.0762865144907884
2.65687289758319,0.0856179293216737
2.66020648967552,-0.0207672936811263
2.66354008176784,-0.0150297878554763
2.66687367386017,-0.117859911169591
2.67020726595249,0.0720125803969436
2.67354085804482,-0.0609368756151912
2.67687445013714,0.0409338725822373
2.68020804222947,0.0128382717677125
2.68354163432179,-0.0143287567013643
2.68687522641412,-0.0446831858002501
2.69020881850644,0.00831738551861962
2.69354241059877,0.125672080492996
2.69687600269109,0.0429576213728036
2.70020959478342,-0.0357522402249583
2.70354318687574,-0.0582429596621032
2.70687677896807,-0.0422576000601463
2.71021037106039,-0.116818704571438
2.71354396315272,-0.0671730729231922
2.71687755524504,-0.0108805441328456
2.72021114733737,-0.0167058465328715
2.7235447394297,0.0369529000344776
2.72687833152202,-0.0194125544244667
2.73021192361435,-0.0120508806426719
2.73354551570667,0.147408892986981
2.736879107799,-0.0461263762855471
2.74021269989132,-0.0147748738052752
2.74354629198365,-0.0670779193370055
2.74687988407597,0.00432016085256073
2.7502134761683,0.0278801828689776
2.75354706826062,0.0280435715623737
2.75688066035295,-0.0117945941314057
2.76021425244527,-0.0338190105640714
2.7635478445376,-0.0677593080692255
2.76688143662992,0.130081712841503
2.77021502872225,-0.023668106704455
2.77354862081457,-0.042251834201483
2.7768822129069,0.0407875219645335
2.78021580499922,-0.0134912750946779
2.78354939709155,0.0730005202226874
2.78688298918387,-0.00595187080463953
2.7902165812762,-0.0661388304483128
2.79355017336852,0.0871810362124442
2.79688376546085,0.0384753386604391
2.80021735755318,0.0431087235262756
2.8035509496455,-0.0567368669016051
2.80688454173783,0.0218035772101022
2.81021813383015,0.0159386592651614
2.81355172592248,-0.0163885123226382
2.8168853180148,-0.0211387311119444
2.82021891010713,0.0721089661246839
2.82355250219945,0.0752296873411691
2.82688609429178,0.0560385157796266
2.8302196863841,0.0610354219983758
2.83355327847643,0.0212262134342587
2.83688687056875,0.0262623523689097
2.84022046266108,-0.0232815156217117
2.8435540547534,0.0909393592881874
2.84688764684573,0.0534459468442388
2.85022123893805,-0.0496108775313168
2.85355483103038,0.0489653319104984
2.8568884231227,0.0286067179684185
2.86022201521503,0.0430574314267427
2.86355560730735,-0.0562291879910641
2.86688919939968,0.0316917899480888
2.870222791492,0.0166289925589266
2.87355638358433,0.00503566783934709
2.87688997567666,0.0163401271822774
2.88022356776898,1.14675991576902
2.88355715986131,0.924114032908058
2.88689075195363,1.15362207873479
2.89022434404596,0.964744984637278
2.89355793613828,1.14066449901653
2.89689152823061,1.1176509559549
2.90022512032293,1.09407482956232
2.90355871241526,1.12069282372672
2.90689230450758,1.00777159266248
2.91022589659991,1.02106496373507
2.91355948869223,0.0238200021265774
2.91689308078456,-0.0242093840379648
2.92022667287688,0.0174040639696335
2.92356026496921,-0.0504425975780006
2.92689385706153,-0.0145674820297599
2.93022744915386,-0.00190897701834477
2.93356104124618,0.0101826279071727
2.93689463333851,0.0547061445205197
2.94022822543083,-0.0492330779953806
2.94356181752316,-0.0321599382714379
2.94689540961548,-0.0156211411702256
2.95022900170781,0.0673007286454662
2.95356259380013,-0.0626108685075636
2.95689618589246,0.0321628529426156
2.96022977798479,-0.0581896812927737
2.96356337007711,-0.012806623366227
2.96689696216944,0.0181103670460587
2.97023055426176,0.0342464619127996
2.97356414635409,-0.026200301079112
2.97689773844641,0.0403060159844384
2.98023133053874,0.103112501185628
2.98356492263106,-0.0318213903949669
2.98689851472339,0.0241958339780908
2.99023210681571,0.0133912048216778
2.99356569890804,0.0426045993144597
2.99689929100036,-0.0348565468217703
3.00023288309269,0.0393156532346108
3.00356647518501,0.00117977025854214
3.00690006727734,0.0633533233967755
3.01023365936966,0.154827163488154
3.01356725146199,-0.0468826054465066
3.01690084355431,0.103716763451907
3.02023443564664,-0.0209382193554874
3.02356802773896,-0.0228952374473716
3.02690161983129,0.0466324642607419
3.03023521192361,0.00627446024626135
3.03356880401594,-0.0146629126139199
3.03690239610826,0.0970797933401286
3.04023598820059,0.0461015307465073
3.04356958029292,0.05573238955845
3.04690317238524,0.123451165759024
3.05023676447757,0.10760547991881
3.05357035656989,0.259030308203656
3.05690394866222,0.088515543698041
3.06023754075454,0.0948867723156843
3.06357113284687,0.131558274544438
3.06690472493919,0.0192704205117787
3.07023831703152,0.0461688041519551
3.07357190912384,-0.0250735574238423
3.07690550121617,0.0855831932553097
3.08023909330849,0.0155012717849231
3.08357268540082,0.0765395935236344
3.08690627749314,0.0619955175363066
3.09023986958547,0.136091105549141
3.09357346167779,0.075696529336618
3.09690705377012,0.0326421590624703
3.10024064586244,0.0948760745270957
3.10357423795477,0.0286419521182624
3.10690783004709,0.00818283815520189
3.11024142213942,0.146719564124126
3.11357501423174,0.0321363480338491
3.11690860632407,0.00738532141303479
3.12024219841639,0.112596741983716
3.12357579050872,0.136908704778859
3.12690938260105,0.0873373151004854
3.13024297469337,0.0771627994478113
3.1335765667857,0.105512014915584
3.13691015887802,0.125899738320595
3.14024375097035,0.126633875473989
3.14357734306267,-0.0283312397995343
3.146910935155,0.0528440561762496
3.15024452724732,0.0906887225481605
3.15357811933965,0.131727308280845
3.15691171143197,0.218128101785947
3.1602453035243,0.0640453577284256
3.16357889561662,0.102823740998002
3.16691248770895,0.247566467240582
3.17024607980127,0.141232294459354
3.1735796718936,0.131217258759023
3.17691326398592,0.20130455866556
3.18024685607825,0.112899522848811
3.18358044817057,0.139506086319327
3.1869140402629,0.0461834945207565
3.19024763235522,0.100668438782579
3.19358122444755,0.0758070921945459
3.19691481653987,0.213328789578017
3.2002484086322,0.1429952311262
3.20358200072453,0.156786591068958
3.20691559281685,0.109095143810216
3.21024918490918,0.118084569925027
3.2135827770015,0.236329630210759
3.21691636909383,0.24318752340841
3.22024996118615,0.0873730281681864
3.22358355327848,0.202130791131524
3.2269171453708,0.154919338837334
3.23025073746313,0.187883100014079
3.23358432955545,0.268623251948641
3.23691792164778,0.195303814205117
3.2402515137401,0.209282385999817
3.24358510583243,0.206701449158514
3.24691869792475,0.189411665263635
3.25025229001708,0.100141135076628
3.2535858821094,0.0771228846871251
3.25691947420173,0.0625728983579161
3.26025306629405,0.277048304112068
3.26358665838638,0.0857586045531646
3.2669202504787,0.18805891916134
3.27025384257103,0.17761783366045
3.27358743466335,0.166402213092131
3.27692102675568,0.0808896504686733
3.28025461884801,0.205160444930924
3.28358821094033,0.282537826366632
3.28692180303266,0.117376844859324
3.29025539512498,0.16660063381236
3.29358898721731,0.201325835313944
3.29692257930963,0.102904782387825
3.30025617140196,0.177513477740273
3.30358976349428,0.187899153384288
3.30692335558661,0.229747185509933
3.31025694767893,0.173261698290856
3.31359053977126,0.193789843345755
3.31692413186358,0.233011586658435
3.32025772395591,0.224063124702434
3.32359131604823,0.111411379092116
3.32692490814056,0.197381684765097
3.33025850023288,0.0516700682187714
3.3335920923252,0.103214412380738
3.33692568441753,0.161660090239769
3.34025927650987,0.236770223248227
3.3435928686022,0.108293834607667
3.3469264606945,0.233402594812674
3.35026005278683,0.0418914097613842
3.35359364487917,0.238839619893372
3.3569272369715,0.177159848795511
3.3602608290638,0.14558191982798
3.36359442115613,0.206327675307576
3.36692801324847,0.0975916807395453
3.3702616053408,0.10858812982872
3.3735951974331,0.0858763028251041
3.37692878952543,0.104071299683725
3.38026238161777,0.186858946092197
3.3835959737101,0.22261984917735
3.3869295658024,0.0987346203965764
3.39026315789473,0.0521157223475855
3.39359674998707,0.120885654106778
3.3969303420794,0.0131454442333793
3.4002639341717,0.145424706984704
3.40359752626403,0.0949680471542882
3.40693111835637,0.0920441994598935
3.4102647104487,0.0982421309753724
3.413598302541,0.197799708860929
3.41693189463333,0.160759478418558
3.42026548672567,0.0893667221294911
3.423599078818,0.211032721313367
3.4269326709103,0.0510873866826905
3.43026626300263,0.0425815522981523
3.43359985509497,0.179180599657153
3.4369334471873,0.168784971750363
3.4402670392796,0.0441644564485677
3.44360063137193,0.112444361404148
3.44693422346427,0.0274131789099655
3.4502678155566,0.0880320931848255
3.4536014076489,0.0230299686614891
3.45693499974123,0.137141324327024
3.46026859183357,0.0224000225387618
3.4636021839259,0.06617441126325
3.46693577601823,0.156833581398127
3.47026936811053,0.1142071783723
3.47360296020287,0.109394671068667
3.4769365522952,-0.0913537486671179
3.48027014438753,0.0178417578758025
3.48360373647983,0.0931923670650321
3.48693732857217,0.0350775828530166
3.4902709206645,0.0833432854500265
3.49360451275683,-0.0513212155686815
3.49693810484913,0.0911076633411534
3.50027169694147,0.034680158451719
3.5036052890338,0.0923327849002488
3.50693888112613,0.0175861175130005
3.51027247321843,0.0394292471575034
3.51360606531077,-0.0289588916159348
3.5169396574031,0.103008681375373
3.52027324949543,0.0275729981821723
3.52360684158773,0.00955879653116494
3.52694043368007,0.0821434169403522
3.5302740257724,0.0502365625200426
3.53360761786473,0.0216822053116727
3.53694120995703,0.0963120435514777
3.54027480204937,-0.043038009163897
3.5436083941417,-0.0764818385375256
3.54694198623403,0.00482784105763424
3.55027557832633,0.0572263302876506
3.55360917041867,-0.0334840466779967
3.556942762511,0.0674211992871437
3.56027635460333,-0.0908462263381185
3.56360994669563,-0.0697261166693747
3.56694353878797,0.0555298368508624
3.5702771308803,0.0370040140560146
3.57361072297263,0.0325398365614314
3.57694431506493,-0.0247138280626761
3.58027790715727,0.0260947998531595
3.5836114992496,-0.0397843055538094
3.58694509134193,-0.0836933307106741
3.59027868343423,0.136522730504178
3.59361227552657,-0.0467994792570853
3.5969458676189,0.0499877468345124
3.60027945971123,-0.0278535522565697
3.60361305180357,-0.0384353640225521
3.60694664389587,-0.037678520680397
3.6102802359882,0.0717754492172046
3.61361382808053,-0.0254549653154437
3.61694742017287,0.00265606896553665
3.62028101226517,0.0952285245854937
3.6236146043575,0.149020223555532
3.62694819644983,0.0553438584373631
3.63028178854217,0.0542147641421694
3.63361538063447,-0.0171712957207414
3.6369489727268,0.0327331557908672
3.64028256481913,-0.0455967076923189
3.64361615691147,0.0778656867423202
3.64694974900377,-0.0322178480275983
3.6502833410961,0.0111797002905175
3.65361693318843,0.0291603107849434
3.65695052528077,0.0552445545670162
3.66028411737307,-0.0277787721926869
3.6636177094654,0.00935121863922838
3.66695130155773,0.0706538466232037
3.67028489365007,0.0178169104133502
3.67361848574237,0.0294082490077181
3.6769520778347,-0.0624718268174568
3.68028566992703,-0.0418316304229337
3.68361926201937,0.091641751302584
3.68695285411167,0.0278471751433044
3.690286446204,0.029548186229597
3.69362003829633,0.0644145785736131
3.69695363038867,0.0181244747577974
3.70028722248097,-0.00940262724431523
3.7036208145733,0.0298614766051283
3.70695440666563,-0.116114467562942
3.71028799875797,-0.168016384848924
3.71362159085027,0.066146985978844
3.7169551829426,0.0870065520717835
3.72028877503493,-0.000654692692352632
3.72362236712727,-0.0818639041784768
3.72695595921957,-0.045186892798283
3.7302895513119,0.0932881526992194
3.73362314340423,-0.0647664205067632
3.73695673549657,0.00833961584371378
3.7402903275889,-0.0835427439788724
3.7436239196812,0.0157076683068291
3.74695751177353,-0.0578498166743044
3.75029110386587,-0.0760722679891294
3.7536246959582,0.0333045391094155
3.7569582880505,1.07269897520598
3.76029188014283,1.09874320966922
3.76362547223517,1.15446797377384
3.7669590643275,1.04242319254892
3.7702926564198,1.11291961542013
3.77362624851213,1.18480828821442
3.77695984060447,1.05909347882098
3.7802934326968,1.08258233653529
3.7836270247891,-0.0642107128293809
3.78696061688143,-0.0636012738965208
3.79029420897377,-0.0065326175836463
3.7936278010661,-0.0163679936446928
3.7969613931584,-0.0698077517497762
3.80029498525073,0.0435157569578943
3.80362857734307,0.00696402979113209
3.8069621694354,-0.0146176207051272
3.8102957615277,0.0029554398983901
3.81362935362003,0.0983553043655191
3.81696294571237,0.031499750201973
3.8202965378047,-0.0430059494339113
3.823630129897,0.101475974214234
3.82696372198933,-0.0537122304756518
3.83029731408167,-0.0184510877077745
3.833630906174,0.0407520298629776
3.8369644982663,0.0473149542835159
3.84029809035863,0.0789602752727118
3.84363168245097,0.0391701689878503
3.8469652745433,0.00570680226945916
3.8502988666356,-0.0744166555642558
3.85363245872793,0.00484872836834914
3.85696605082027,-0.0238920278645851
3.8602996429126,-0.00228296803979006
3.86363323500493,0.0515246214638865
3.86696682709723,-0.0252011367959488
3.87030041918957,-0.0414127703530597
3.8736340112819,0.0355245440220694
3.87696760337423,0.0943286305524251
3.88030119546653,-0.0780053387393664
3.88363478755887,-0.0506320887154203
3.8869683796512,-0.00916903956311024
3.89030197174353,-0.121285501728819
3.89363556383583,0.0357071775272808
3.89696915592817,0.0414584375816991
3.9003027480205,0.00265291017174587
3.90363634011283,0.0064973913807249
3.90696993220513,0.0318359737962327
3.91030352429747,0.0293099190727154
3.9136371163898,0.209344821371797
3.91697070848213,0.0988622068479953
3.92030430057443,0.145474566029938
3.92363789266677,-0.00307358113162008
3.9269714847591,0.00292219922063481
3.93030507685143,-0.0720555010252914
3.93363866894373,-0.0379147951012364
3.93697226103607,0.0365164846681544
3.9403058531284,0.122912860331075
3.94363944522073,0.000928016051535877
3.94697303731303,0.0232704645100473
3.95030662940537,0.0998626463398857
3.9536402214977,-0.0026344825437386
3.95697381359003,0.150064383213988
3.96030740568233,0.104238979608056
3.96364099777467,0.0995325865376957
3.966974589867,0.120079288363942
3.97030818195933,0.0863402242261827
3.97364177405163,0.0273573256753108
3.97697536614397,0.122243567758316
3.9803089582363,0.0953860897534108
3.98364255032863,0.147877360973696
3.98697614242093,0.0161427657854261
3.99030973451327,0.0970887341711352
3.9936433266056,0.105676371990656
3.99697691869793,0.221585546396002
4.00031051079027,0.170375546656038
4.00364410288257,0.118199765793458
4.0069776949749,0.0952525121836166
4.01031128706723,0.129399531522636
4.01364487915957,0.12833471494496
4.01697847125187,0.160762029732961
4.0203120633442,0.0326292363626241
4.02364565543653,0.0899951512125961
4.02697924752887,0.118294805935432
4.03031283962117,0.150777548973834
4.0336464317135,0.0695592866814377
4.03698002380583,0.124193521359791
4.04031361589817,0.126463389453316
4.04364720799047,0.208177749402525
4.0469808000828,0.0857947007947125
4.05031439217513,0.0640833010833604
4.05364798426747,0.0989014218114214
4.05698157635977,0.236999517947461
4.0603151684521,0.137211473279149
4.06364876054443,0.0661359994081443
4.06698235263677,0.187368979732841
4.07031594472907,0.190268584500383
4.0736495368214,0.135151075373726
4.07698312891373,0.191236119367033
4.08031672100607,0.181262107977175
4.08365031309837,0.164483687473785
4.0869839051907,0.252933959537007
4.09031749728303,0.151060605967129
4.09365108937537,0.194091108908489
4.09698468146767,0.247555854455124
4.10031827356,0.207054075220158
4.10365186565233,0.201620952026807
4.10698545774467,0.151204178231753
4.11031904983697,0.193260032615239
4.1136526419293,0.174888032321576
4.11698623402163,0.200225359056399
4.12031982611397,0.23798514761702
4.1236534182063,0.176572189660773
4.1269870102986,0.148444183707839
4.13032060239093,0.157149710160491
4.13365419448327,0.283797912691446
4.1369877865756,0.142776391504054
4.1403213786679,0.100897429462086
4.14365497076023,0.225535762176526
4.14698856285257,0.249841073325122
4.1503221549449,0.119758700785131
4.1536557470372,0.217721365729094
4.15698933912953,0.0650411474055932
4.16032293122187,0.203334500410313
4.1636565233142,0.158569699401361
4.1669901154065,0.156962555945974
4.17032370749883,0.106481923452968
4.17365729959117,0.187485011096776
4.1769908916835,0.257205843615455
4.1803244837758,0.128684407350184
4.18365807586813,0.190677861925316
4.18699166796047,0.235379917264018
4.1903252600528,0.223795173468262
4.1936588521451,0.137148024983799
4.19699244423743,0.186694043049613
4.20032603632977,0.137639857127119
4.2036596284221,0.123186971008386
4.2069932205144,0.0933880724721231
4.21032681260673,0.128891546548713
4.21366040469907,0.231317526671698
4.2169939967914,0.225958341986536
4.2203275888837,0.205414609435933
4.22366118097603,0.172587676039213
4.22699477306837,0.0584593949356177
4.2303283651607,0.205570353973769
4.233661957253,0.0651626055078158
4.23699554934533,0.230427535084725
4.24032914143767,0.0899641993972767
4.24366273353,0.193714687425931
4.2469963256223,0.17323965061506
4.25032991771463,0.133640119642827
4.25366350980697,0.0764719513777393
4.2569971018993,0.15059313293026
4.2603306939916,0.158230007990628
4.26366428608393,0.258281056217025
4.26699787817627,0.033785881354701
4.2703314702686,0.189805206894003
4.27366506236093,0.204302749033756
4.27699865445323,0.212686694787194
4.28033224654557,0.0517801835514247
4.2836658386379,0.071546696825802
4.28699943073023,0.047183132929715
4.29033302282253,0.0471777289639991
4.29366661491487,0.110872781321306
4.2970002070072,0.110067802623116
4.30033379909953,0.163433152695619
4.30366739119183,0.0288799269704533
4.30700098328417,0.259673474168811
4.3103345753765,0.0341334232930421
4.31366816746883,0.0814721986169107
4.31700175956113,0.0617403053993432
4.32033535165347,0.0299276407355001
4.3236689437458,0.146647513172129
4.32700253583813,-0.0560681049289986
4.33033612793043,0.0457627294328924
4.33366972002277,0.162953784100219
4.3370033121151,0.231840596554991
4.34033690420743,0.0562264084234947
4.34367049629973,0.149644482774059
4.34700408839207,0.179548630172335
4.3503376804844,0.138725820764787
4.35367127257673,0.130606902671635
4.35700486466903,0.0361208092607694
4.36033845676137,0.0428480496436586
4.3636720488537,0.102710902683646
4.36700564094603,0.101968016388264
4.37033923303833,0.166204117643784
4.37367282513067,0.0325526921908736
4.377006417223,0.0368090313994011
4.38034000931533,0.00406266096419808
4.38367360140763,0.0849974684399802
4.38700719349997,0.000712420129764378
4.3903407855923,-0.0706722214853885
4.39367437768463,0.0380724507974451
4.39700796977697,-0.024089358352102
4.40034156186927,0.0396388068949742
4.4036751539616,-0.0212120715963585
4.40700874605393,0.0701780594029072
4.41034233814627,0.0751886377123593
4.41367593023857,-0.0705230681463215
4.4170095223309,0.104816450412051
4.42034311442323,0.0619298452408117
4.42367670651557,0.0461982645714992
4.42701029860787,-0.0997389639176374
4.4303438907002,-0.0241153899219141
4.43367748279253,-0.0282205105590486
4.43701107488487,-0.0387298663742607
4.44034466697717,-0.0839880588368616
4.4436782590695,-0.0188009496628202
4.44701185116183,-0.0835318527860362
4.45034544325417,0.00852439438926213
4.45367903534647,-0.00515919593222185
4.4570126274388,-0.053191808809072
4.46034621953113,-0.0549538491058306
4.46367981162347,0.0134115617751595
4.46701340371577,0.0748204863288409
4.4703469958081,0.0288985878724168
4.47368058790043,-0.00883119302810221
4.47701417999277,-0.0403752618177335
4.48034777208507,-0.0659285273566088
4.4836813641774,0.00964387530791022
4.48701495626973,-0.0740703610453947
4.49034854836207,-0.0980941221781848
4.49368214045437,-0.0349790059858775
4.4970157325467,0.0491845927787444
4.50034932463903,0.00578994929333639
4.50368291673137,-0.00630217995359065
4.50701650882367,0.0196467714302108
4.510350100916,-0.0731086289702007
4.51368369300833,-0.0726943375342342
4.51701728510067,-0.0567200926752309
4.52035087719297,0.0145765872117906
4.5236844692853,0.0175289479090377
4.52701806137763,0.0121565226350425
4.53035165346997,-0.0558845900600787
4.53368524556227,-0.0129769700806204
4.5370188376546,0.0272464482394277
4.54035242974693,0.0320454355266212
4.54368602183927,0.0825641530836996
4.5470196139316,0.0206160437286864
4.5503532060239,0.0453820029880576
4.55368679811623,0.00237569598753054
4.55702039020857,0.0425378369296615
4.5603539823009,0.015187981992864
4.5636875743932,0.116378266129395
4.56702116648553,0.0662615535582048
4.57035475857787,-0.0186255606552512
4.5736883506702,0.0187886055599035
4.5770219427625,-0.0395972464739928
4.58035553485483,0.0254329124614403
4.58368912694717,0.0760029848301488
4.5870227190395,0.0190488183278107
4.5903563111318,0.0765282923559549
4.59368990322413,0.0430975575941025
4.59702349531647,0.10846777235002
4.6003570874088,9.0797835487523E-05
4.6036906795011,-0.0134013640128349
4.60702427159343,1.23557658692996
4.61035786368577,1.27697205168324
4.6136914557781,1.0372539302996
4.6170250478704,1.14660610021615
4.62035863996273,1.08194151983099
4.62369223205507,1.16329207377754
4.6270258241474,1.13617805583392
4.6303594162397,1.04602796746374
4.63369300833203,1.16557095825808
4.63702660042437,-0.00619176340080711
4.6403601925167,0.0196164525378411
4.643693784609,-0.0709946493132062
4.64702737670133,-0.0396713940381933
4.65036096879367,-0.0208302898889566
4.653694560886,0.0141374250438967
4.6570281529783,0.0526650688671476
4.66036174507063,0.0287263087621461
4.66369533716297,0.0491758448238022
4.6670289292553,-0.00976293392676683
4.67036252134763,-0.117365258808919
4.67369611343993,0.0381599656134268
4.67702970553227,0.0994338949174824
4.6803632976246,-0.0056137629790103
4.68369688971693,-0.121167603152672
4.68703048180923,-0.0653293955517123
4.69036407390157,-0.024059325847194
4.6936976659939,-0.017008288128562
4.69703125808623,0.0218847354162883
4.70036485017853,0.0675975437178803
4.70369844227087,0.00304875793730519
4.7070320343632,0.0520569113169118
4.71036562645553,-0.041766152116038
4.71369921854783,0.134417267098184
4.71703281064017,0.0984814691590849
4.7203664027325,-0.123190394735287
4.72369999482483,0.0809932397636902
4.72703358691713,-0.0287573801726748
4.73036717900947,-0.0185015038429632
4.7337007711018,-0.0281208611231501
4.73703436319413,-0.0221961987389684
4.74036795528643,0.0691728571727336
4.74370154737877,-0.0698513435994861
4.7470351394711,0.0366219281926264
4.75036873156343,0.00194491570911034
4.75370232365573,0.0186467204521158
4.75703591574807,0.0534040480689477
4.7603695078404,0.0369297402328925
4.76370309993273,0.0983502878026021
4.76703669202503,-0.00765634659136617
4.77037028411737,0.0326585465394471
4.7737038762097,0.0996955476462144
4.77703746830203,-0.0237970074591285
4.78037106039433,0.00285310443916573
4.78370465248667,0.0361890974299875
4.787038244579,0.143725941311155
4.79037183667133,0.102347497262355
4.79370542876363,0.116987274091503
4.79703902085597,0.0395894548577204
4.8003726129483,0.133947366005125
4.80370620504063,0.14177423690389
4.80703979713297,0.056927172486803
4.81037338922527,0.138365122836165
4.8137069813176,0.0875045021243842
4.81704057340993,0.142110373285934
4.82037416550227,0.0211468912351213
4.82370775759457,-0.0718649957266409
4.8270413496869,0.104000262020589
4.83037494177923,0.102466379993367
4.83370853387157,0.0847226181005304
4.83704212596387,0.0229098312736349
4.8403757180562,0.116850771576027
4.84370931014853,0.166429197046135
4.84704290224087,0.169836251805377
4.85037649433317,0.173397209644254
4.8537100864255,0.108790558861981
4.85704367851783,0.132807913254062
4.86037727061017,0.0565467978859607
4.86371086270247,0.0981006176692009
4.8670444547948,0.116769670607472
4.87037804688713,0.190656685725824
4.87371163897947,0.197058280721527
4.87704523107177,0.107525767653326
4.8803788231641,0.0509173783685895
4.88371241525643,0.127924142259211
4.88704600734877,0.279461328754933
4.89037959944107,0.160738606905976
4.8937131915334,0.154520140971906
4.89704678362573,0.0186119437131441
4.90038037571807,0.190380081613218
4.90371396781037,0.133500353320841
4.9070475599027,0.161328494896189
4.91038115199503,0.105292520472055
4.91371474408737,0.00649624365984439
4.91704833617967,0.179344236372265
4.920381928272,0.248654985927816
4.92371552036433,0.159258300025183
4.92704911245667,0.170182225289536
4.930382704549,0.145307914069146
4.9337162966413,0.163873569721287
4.93704988873363,0.0742750464153385
4.94038348082597,0.154202515746971
4.9437170729183,0.157381047588983
4.9470506650106,0.114785622559725
4.95038425710293,0.176927203036708
4.95371784919527,0.0478515694594316
4.9570514412876,0.218739213256692
4.9603850333799,0.223701612364822
4.96371862547223,0.240142083012746
4.96705221756457,0.19537406767592
4.9703858096569,0.210663888983579
4.9737194017492,0.214578961028626
4.97705299384153,0.205614477579221
4.98038658593387,0.0995232890122393
4.9837201780262,0.222790312126641
4.9870537701185,0.256554910732394
4.99038736221083,0.173314322010116
4.99372095430317,0.200853613463199
4.9970545463955,0.262397948567662
5.0003881384878,0.31047245535571
5.00372173058013,0.204990059713704
5.00705532267247,0.263367150941993
5.0103889147648,0.172744909098114
5.0137225068571,0.173418381624292
5.01705609894943,0.216840351777682
5.02038969104177,0.205894759122768
5.0237232831341,0.223840241010493
5.0270568752264,0.152418080572877
5.03039046731873,0.130131433022843
5.03372405941107,0.206756607978289
5.0370576515034,0.180521657860173
5.0403912435957,0.187011014036909
5.04372483568803,0.18495241338934
5.04705842778037,0.170788736453311
5.0503920198727,0.0752762854367122
5.053725611965,0.100598337259362
5.05705920405733,0.12287375308869
5.06039279614967,0.0399945798028062
5.063726388242,0.126722883446752
5.06705998033433,0.174222217954597
5.07039357242663,0.0781697519183605
5.07372716451897,0.233531399110156
5.0770607566113,0.256036401086575
5.08039434870363,0.0729339534388544
5.08372794079593,0.14432511396973
5.08706153288827,0.131501856252724
5.0903951249806,0.122676801999251
5.09372871707293,0.123531274080034
5.09706230916523,0.197767465332763
5.10039590125757,0.136222868398831
5.1037294933499,0.0758228645313374
5.10706308544223,0.135441348032529
5.11039667753453,-0.000228270470484383
5.11373026962687,0.141394380428108
5.1170638617192,0.135442033950359
5.12039745381153,0.160355828958286
5.12373104590383,0.0738905318928673
5.12706463799617,0.181360465678462
5.1303982300885,0.106839280540086
5.13373182218083,0.221488985390979
5.13706541427313,0.139885092178278
5.14039900636547,0.0534757343364009
5.1437325984578,0.0619818815045962
5.14706619055013,0.0590868292869375
5.15039978264243,0.0487954671727904
5.15373337473477,0.103875483587383
5.1570669668271,0.0726265099656884
5.16040055891943,0.209955538907944
5.16373415101173,-0.0418965314686108
5.16706774310407,0.108206518584838
5.1704013351964,0.137115150643879
5.17373492728873,0.0143443543733364
5.17706851938103,0.128248399888424
5.18040211147337,0.0379188165819805
5.1837357035657,0.0928819698519772
5.18706929565803,0.1455368624324
5.19040288775033,0.00428827060929132
5.19373647984267,-0.000211350609368041
5.197070071935,0.16714300932042
5.20040366402733,0.0333787914065003
5.20373725611967,0.00603272677811383
5.20707084821197,-0.0293080788803422
5.2104044403043,0.0891028238224219
5.21373803239663,0.0108509782049482
5.21707162448897,0.0657538977288892
5.22040521658127,-0.0184550274926002
5.2237388086736,0.101654476660574
5.22707240076593,-0.0439642475121823
5.23040599285827,0.00771735915737914
5.23373958495057,0.0440799346253
5.2370731770429,0.0288446163603479
5.24040676913523,0.0371684989510195
5.24374036122757,-0.0347695895841449
5.24707395331987,-0.0220099511176162
5.2504075454122,-0.0404810496914975
5.25374113750453,-0.0341529908578539
5.25707472959687,-0.0130920621864533
5.26040832168917,-0.0118468080108061
5.2637419137815,0.0247648755900162
5.26707550587383,-0.0501604946608325
5.27040909796617,-0.0610897083070852
5.27374269005847,-0.0363255286955877
5.2770762821508,-0.0550627542743769
5.28040987424313,0.0554683044118739
5.28374346633547,-0.0408049847547515
5.28707705842777,-0.0288764403495131
5.2904106505201,0.0628020530566067
5.29374424261243,-0.0457786065629222
5.29707783470477,-0.0548384162692386
5.30041142679707,0.0471726475017833
5.3037450188894,-0.0224369573623833
5.30707861098173,-0.12393734292804
5.31041220307407,0.13846359145571
5.31374579516637,-0.115888992684725
5.3170793872587,0.0156307332591231
5.32041297935103,0.00856334338764996
5.32374657144337,-0.135242732866465
5.3270801635357,0.0184040580986017
5.330413755628,0.0343640798431892
5.33374734772033,0.0242518512987483
5.33708093981267,0.0131179697810957
5.340414531905,0.0142294970726451
5.3437481239973,-0.01870989343434
5.34708171608963,-0.0158792505502731
5.35041530818197,-0.0454034251160888
5.3537489002743,-0.0311428654488504
5.3570824923666,0.0196138050835833
5.36041608445893,0.0957503534741945
5.36374967655127,-0.00545643286787924
5.3670832686436,0.02399194650256
5.3704168607359,-0.010488838686445
5.37375045282823,-0.00505506521360165
5.37708404492057,-0.0173858015590481
5.3804176370129,0.0276129195252655
5.3837512291052,-0.0151399913458045
5.38708482119753,0.0583224957933309
5.39041841328987,-0.0505795879891226
5.3937520053822,0.0119458816294572
5.3970855974745,-0.054869086178702
5.40041918956683,0.0222812941011916
5.40375278165917,0.0283120849233638
5.4070863737515,-0.0989620241548498
5.4104199658438,-0.0223095356465465
5.41375355793613,-0.00418271280580008
5.41708715002847,0.142585400028142
5.4204207421208,1.03094747797403
5.4237543342131,1.01229601841205
5.42708792630543,1.03019614664453
5.43042151839777,0.987303985148781
5.4337551104901,0.919843520404168
5.4370887025824,1.12278274026857
5.44042229467473,1.08175774830206
5.44375588676707,0.980268670505863
5.4470894788594,0.983117748230086
5.4504230709517,0.933187150287521
5.45375666304403,0.0191129290157792
5.45709025513637,-0.0688611628639867
5.4604238472287,0.0566946980007918
5.463757439321,0.0270637781341952
5.46709103141333,-0.04690171724456
5.47042462350567,0.0307267040300518
5.473758215598,-0.00324487337651608
5.47709180769033,0.0375293865429586
5.48042539978263,-0.0970064751851833
5.48375899187497,-0.0220865610056656
5.4870925839673,-0.034481060751231
5.49042617605963,0.00913103270900442
5.49375976815193,0.0569371355074784
5.49709336024427,0.0443657254244162
5.5004269523366,0.0943616647695301
5.50376054442893,-0.0389871463726234
5.50709413652123,0.0486048128811966
5.51042772861357,-0.0420623971241363
5.5137613207059,-0.0393258015198483
5.51709491279823,-0.018613144645952
5.52042850489053,0.000607079763503479
5.52376209698287,-0.0103416796694429
5.5270956890752,0.0123940881287736
5.53042928116753,0.0911558507682901
5.53376287325983,-0.0502131150645896
5.53709646535217,-0.0066718894749209
5.5404300574445,0.0494755280167361
5.54376364953683,-0.0403895517921132
5.54709724162913,0.0461647451343614
5.55043083372147,-0.0159105207054557
5.5537644258138,0.0554495448438382
5.55709801790613,0.0681339825658028
5.56043160999843,-0.03776051176262
5.56376520209077,0.0656746210275694
5.5670987941831,0.0288072759686191
5.57043238627543,-0.121641588438582
5.57376597836773,0.0555836664229981
5.57709957046007,0.110918325322019
5.5804331625524,0.0439400014923535
5.58376675464473,0.0890712700449578
5.58710034673703,0.023076957322302
5.59043393882937,0.00657968882537268
5.5937675309217,0.0334504279232249
5.59710112301403,0.0693615987455031
5.60043471510637,0.140058030657317
5.60376830719867,-0.0395324568274636
5.607101899291,0.0986474079503994
5.61043549138333,0.100172776456111
5.61376908347567,0.0502257852777929
5.61710267556797,0.0830246509224574
5.6204362676603,0.0410158292196353
5.62376985975263,0.0439550640969617
5.62710345184497,0.167463266644935
5.63043704393727,0.147904661535926
5.6337706360296,0.0171954348845618
5.63710422812193,0.0309293246532047
5.64043782021427,0.0806099836989003
5.64377141230657,0.00905881201715796
5.6471050043989,0.0332414040008805
5.65043859649123,0.0877445817222676
5.65377218858357,0.0921631762431668
5.65710578067587,0.17865163620983
5.6604393727682,0.155218677119548
5.66377296486053,0.0274268655723651
5.66710655695287,-0.0261489797730851
5.67044014904517,0.154253342357171
5.6737737411375,0.107166904431262
5.67710733322983,0.0564699873687946
5.68044092532217,0.149066978448601
5.68377451741447,0.149074425094184
5.6871081095068,0.0542071218822183
5.69044170159913,0.188741462539271
5.69377529369147,0.017249770643977
5.69710888578377,0.0445690599859086
5.7004424778761,0.166032850337369
5.70377606996843,0.0366458424572186
5.70710966206077,0.101642985633442
5.71044325415307,0.0366696178362284
5.7137768462454,0.106804013093508
5.71711043833773,0.140967097468841
5.72044403043007,0.0747893529641283
5.72377762252237,0.232443111019959
5.7271112146147,0.146714799154627
5.73044480670703,0.157750739222871
5.73377839879937,0.161010346022942
5.7371119908917,0.176187981781698
5.740445582984,0.0866014064969223
5.74377917507633,-0.017332500122115
5.74711276716867,0.122941183029201
5.750446359261,0.16220222684065
5.7537799513533,0.16802113854787
5.75711354344563,0.276255631083209
5.76044713553797,0.187747258724021
5.7637807276303,0.161217167915115
5.7671143197226,-0.030947978297516
5.77044791181493,0.311899344634089
5.77378150390727,0.0245019351514146
5.7771150959996,0.0958897249700543
5.7804486880919,0.221505297853931
5.78378228018423,0.166295825982686
5.78711587227657,0.112074436099942
5.7904494643689,0.217755269932542
5.7937830564612,0.196865041601001
5.79711664855353,0.18227361220103
5.80045024064587,0.131924639750028
5.8037838327382,0.225636726471046
5.8071174248305,0.225083479135583
5.81045101692283,0.190310930060132
5.81378460901517,0.255402491849673
5.8171182011075,0.107594083552753
5.8204517931998,0.261324076316177
5.82378538529213,0.189639923455635
5.82711897738447,0.148890030772379
5.8304525694768,0.226256955999892
5.8337861615691,0.10464378624126
5.83711975366143,0.204803040937686
5.84045334575377,0.135993667325975
5.8437869378461,0.286497762415007
5.8471205299384,0.188352877553943
5.85045412203073,0.17410588751923
5.85378771412307,0.324498233619573
5.8571213062154,0.170425494856247
5.8604548983077,0.166586398037229
5.86378849040003,0.227101387153922
5.86712208249237,0.125935814172134
5.8704556745847,0.11306877972283
5.87378926667703,0.0937895583514159
5.87712285876933,0.00565903593562786
5.88045645086167,0.142460442862654
5.883790042954,0.19026990436027
5.88712363504633,0.16965022763361
5.89045722713863,0.197118004178492
5.89379081923097,0.222672608221362
5.8971244113233,0.19605988420459
5.90045800341563,0.16252161720567
5.90379159550793,0.173066474473942
5.90712518760027,0.131339731695907
5.9104587796926,0.124932281194383
5.91379237178493,0.10261423004353
5.91712596387723,0.237738932790218
5.92045955596957,0.13040723628498
5.9237931480619,0.143086513205217
5.92712674015423,0.125738777494245
5.93046033224653,0.0598402054486092
5.93379392433887,0.19625332869034
5.9371275164312,0.110703293978317
5.94046110852353,0.0616851865868572
5.94379470061583,0.0908030172429214
5.94712829270817,0.183835301917614
5.9504618848005,0.176408610939889
5.95379547689283,0.0959800652455895
5.95712906898513,0.211825205251205
5.96046266107747,0.0675894835600183
5.9637962531698,0.0971238401793985
5.96712984526213,0.034507489638874
5.97046343735443,0.0631810729211024
5.97379702944677,0.113726943876005
5.9771306215391,0.163399158057548
5.98046421363143,0.0948660528900991
5.98379780572373,0.18777733824619
5.98713139781607,0.159635890947841
5.9904649899084,0.168458175885239
5.99379858200073,0.182454670447479
5.99713217409307,0.152475079375562
6.00046576618537,0.0341512460887062
6.0037993582777,0.156503312931623
6.00713295037003,0.0340783813060083
6.01046654246237,-0.0187383012143765
6.01380013455467,0.0707211728187836
6.017133726647,0.144020818915799
6.02046731873933,0.173297393225622
6.02380091083167,0.052020620231758
6.02713450292397,0.125634222944188
6.0304680950163,-0.00947904648670251
6.03380168710863,0.0907513270261043
6.03713527920097,0.100616128519233
6.04046887129327,-0.000264985654499256
6.0438024633856,0.12238813708396
6.04713605547793,0.0267504876152641
6.05046964757027,0.0394649129177374
6.05380323966257,0.0395902799811192
6.0571368317549,0.0727766757027549
6.06047042384723,-0.0317993467725206
6.06380401593957,0.0748004990010629
6.06713760803187,0.119227667000288
6.0704712001242,0.0034921378489917
6.07380479221653,0.0692062291095835
6.07713838430887,0.0939349815456056
6.08047197640117,0.0711919847822412
6.0838055684935,-0.0546910707504842
6.08713916058583,0.100561500797504
6.09047275267817,0.0797968388569025
6.09380634477047,0.111845955285464
6.0971399368628,0.113413544224193
6.10047352895513,-0.00590191573840328
6.10380712104747,0.000152114709535772
6.10714071313977,0.0706723327841201
6.1104743052321,-0.0234117280085403
6.11380789732443,0.0208812571079201
6.11714148941677,-0.000102105192979651
6.12047508150907,0.0595983925441424
6.1238086736014,0.0842906848897288
6.12714226569373,-0.00297578639842701
6.13047585778607,-0.130541082699836
6.1338094498784,0.0624903143782938
6.1371430419707,0.00471175445844403
6.14047663406303,-0.0949382392300666
6.14381022615537,-0.042901653963746
6.1471438182477,-0.0442381799315772
6.15047741034,-0.0686565555271503
6.15381100243233,-0.0679727705957346
6.15714459452467,-0.120329640189385
6.160478186617,0.101768861252349
6.1638117787093,0.0392574023307969
6.16714537080163,-0.0226584836795305
6.17047896289397,0.0944522264569623
6.1738125549863,0.0163540042150894
6.1771461470786,-0.0302469428794544
6.18047973917093,0.0177470942461879
6.18381333126327,0.0559499486716247
6.1871469233556,0.0869867395748201
6.1904805154479,0.0314781822151508
6.19381410754023,-0.0603180900963853
6.19714769963257,0.00397155229508337
6.2004812917249,-0.0575928426848812
6.2038148838172,-0.0164189264104123
6.20714847590953,-0.0315420742112703
6.21048206800187,-0.00380068758667976
6.2138156600942,-0.0223314527769669
6.2171492521865,-0.0197770355561954
6.22048284427883,0.0908630887162567
6.22381643637117,-0.0524421629908575
6.2271500284635,0.0478927137411847
6.2304836205558,0.0613162245882152
6.23381721264813,0.050618680308933
6.23715080474047,-0.0344588983075878
6.2404843968328,-0.0351876955832782
6.2438179889251,-0.0346758990237403
6.24715158101743,0.0172947830590288
6.25048517310977,0.073352615111974
6.2538187652021,-0.0906533169227845
6.2571523572944,0.0263467297811939
6.26048594938673,-0.0947299808163153
6.26381954147907,-0.0211912710641279
6.2671531335714,-0.0160763933511634
6.27048672566373,0.0690356506397865
6.27382031775603,-0.0360305237390443
6.27715390984837,-0.0265518321002571
6.2804875019407,0.0490211509098518
6.28382109403303,0.0345196223230784
6.28715468612533,-0.0564702715216391
6.29048827821767,0.0830285006783735
6.29382187031,0.0745464874489089
6.29715546240233,-0.11413800603297
6.30048905449463,0.0810400385104965
6.30382264658697,-0.0681407461521968
6.3071562386793,0.0599192079322521
6.31048983077163,-0.0127935836204061
6.31382342286393,0.0156227652349753
6.31715701495627,-0.0477496061444538
6.3204906070486,0.0517294121120063
6.32382419914093,-0.0399281619380359
6.32715779123323,0.0417413660565134
6.33049138332557,-0.018295100076814
6.3338249754179,0.866271263206669
6.33715856751023,0.974366579147409
6.34049215960253,0.778492960919434
6.34382575169487,0.900299366688436
6.3471593437872,0.95122945296159
6.35049293587953,0.790575100458974
6.35382652797183,0.860303775717478
6.35716012006417,0.787508265424315
6.3604937121565,0.819892921145533
6.36382730424883,0.8371828193075
6.36716089634113,0.0719867309167114
6.37049448843347,0.0598610379667488
6.3738280805258,-0.0107399511830881
6.37716167261813,-0.0612413548050506
6.38049526471043,0.00293555159695633
6.38382885680277,0.00989163658767256
6.3871624488951,-0.0553915816642626
6.39049604098743,-0.0365375989602033
6.39382963307973,-0.000785349361120888
6.39716322517207,-0.0321993827784637
6.4004968172644,0.00984668481794315
6.40383040935673,0.0447521357801729
6.40716400144907,-0.0409451909779314
6.41049759354137,0.0140270736300429
6.4138311856337,-0.104365408581364
6.41716477772603,0.0503267890976026
6.42049836981837,-0.0672762284530787
6.42383196191067,-0.0781583733214989
6.427165554003,-0.0911479813152001
6.43049914609533,0.0562273726214847
6.43383273818767,0.0291221913270282
6.43716633027997,0.021566992213874
6.4404999223723,-0.00218704388874535
6.44383351446463,-0.0259260885101191
6.44716710655697,0.0377920718863688
6.45050069864927,0.0766476576567761
6.4538342907416,-0.0633353502136732
6.45716788283393,-0.00178437483470976
6.46050147492627,-0.0291456883927268
6.46383506701857,-0.0332137100426688
6.4671686591109,-0.0282056178383692
6.47050225120323,0.0668225629562117
6.47383584329557,-0.00295527946343423
6.47716943538787,-0.050612332603876
6.4805030274802,-0.0721569001336712
6.48383661957253,0.140938880510621
6.48717021166487,0.12838341582822
6.49050380375717,-0.0294217362125764
6.4938373958495,0.129136443740683
6.49717098794183,0.0673755318321677
6.50050458003417,0.0929018869110963
6.50383817212647,0.217533347855373
6.5071717642188,-0.0491741423581746
6.51050535631113,-0.0661912505895832
6.51383894840347,0.0320978276345741
6.51717254049577,0.0164326967193757
6.5205061325881,0.138651606975726
6.52383972468043,0.0837461307149386
6.52717331677277,0.0899205896511889
6.5305069088651,0.0849241757584158
6.5338405009574,0.0372384403023275
6.53717409304973,0.169877231394849
6.54050768514207,0.095154756373121
6.5438412772344,0.035502720985672
6.5471748693267,0.0760152654436723
6.55050846141903,0.128189695792823
6.55384205351137,0.0892797806210467
6.5571756456037,0.054171749082373
6.560509237696,0.195021814822453
6.56384282978833,-0.0510712665335518
6.56717642188067,-0.00483783723660618
6.570510013973,0.0189853120483667
6.5738436060653,0.156365056263614
6.57717719815763,0.131918084648221
6.58051079024997,0.0949464665977562
6.5838443823423,0.125873178155053
6.5871779744346,0.175543454908995
6.59051156652693,0.134058370738868
6.59384515861927,0.0719913722984375
6.5971787507116,0.224497869413964
6.6005123428039,0.108991325466488
6.60384593489623,0.082438547532256
6.60717952698857,0.135535618398344
6.6105131190809,0.216745050999923
6.6138467111732,0.124814783911326
6.61718030326553,0.164212351564095
6.62051389535787,0.0455422699594411
6.6238474874502,0.0729976665894082
6.6271810795425,0.235858150454492
6.63051467163483,0.0660416740520073
6.63384826372717,0.0870374818207391
6.6371818558195,0.148846994419164
6.6405154479118,0.157688583678826
6.64384904000413,0.0981856285362041
6.64718263209647,0.111767842856628
6.6505162241888,0.146360344787649
6.6538498162811,0.175114163566724
6.65718340837343,0.164485157374426
6.66051700046577,0.194122474565649
6.6638505925581,0.161644668510683
6.6671841846504,0.225779300253169
6.67051777674273,0.142733297974415
6.67385136883507,0.0727917326854556
6.6771849609274,0.225423755914026
6.68051855301973,0.183685150885161
6.68385214511203,0.114403314482632
6.68718573720437,0.218068536205255
6.6905193292967,0.206325497931491
6.69385292138903,0.275232191060011
6.69718651348133,0.211606389433824
6.70052010557367,0.0844198875019778
6.703853697666,0.170470310449092
6.70718728975833,0.252132726073391
6.71052088185063,0.240934144584284
6.71385447394297,0.203394696807463
6.7171880660353,0.203928942794928
6.72052165812763,0.174132163102044
6.72385525021993,0.239232512147416
6.72718884231227,0.198844552148489
6.7305224344046,0.205686265562057
6.73385602649693,0.186024816952601
6.73718961858923,0.129807079130882
6.74052321068157,0.341096017592455
6.7438568027739,0.258271142047683
6.74719039486623,0.151906757730583
6.75052398695853,0.243863808598838
6.75385757905087,0.251396330209353
6.7571911711432,0.216092063488135
6.76052476323553,0.153071737364987
6.76385835532783,0.174829296353295
6.76719194742017,0.0984146060305943
6.7705255395125,0.233415757479941
6.77385913160483,0.206144969732728
6.77719272369713,0.226529775932409
6.78052631578947,0.131637734885311
6.7838599078818,0.186902202754177
6.78719349997413,0.091192517171264
6.79052709206643,0.215611917811173
6.79386068415877,0.118393674297936
6.7971942762511,0.154250057775005
6.80052786834343,0.211672052100683
6.80386146043577,0.210681274284456
6.80719505252807,0.163607842858903
6.8105286446204,0.132209714720587
6.81386223671273,0.178021815150284
6.81719582880507,0.202883195983758
6.82052942089737,0.108928535627532
6.8238630129897,0.00526768897091338
6.82719660508203,0.0620182325832797
6.83053019717437,0.176100877177439
6.83386378926667,0.119374879898372
6.837197381359,0.0630350290533573
6.84053097345133,0.183591348881839
6.84386456554367,0.174016312497431
6.84719815763597,0.0749588469178377
6.8505317497283,0.0678251919510149
6.85386534182063,0.0447209780409664
6.85719893391297,0.147343623792581
6.86053252600527,0.0830512661568949
6.8638661180976,0.13852696540675
6.86719971018993,0.0175204807893589
6.87053330228227,0.115286685907193
6.87386689437457,0.0253333380486542
6.8772004864669,0.102065432593389
6.88053407855923,0.171661343763021
6.88386767065157,0.0415861712320782
6.88720126274387,0.154769022554104
6.8905348548362,0.0746145772505893
6.89386844692853,0.156330071644655
6.89720203902087,0.0690634735268639
6.90053563111317,0.138115544027419
6.9038692232055,0.0782968488372035
6.90720281529783,0.146566658487201
6.91053640739017,0.0978752051044772
6.91386999948247,0.0365079887052634
6.9172035915748,0.053879054826677
6.92053718366713,-0.0938007603976239
6.92387077575947,0.011533067857442
6.92720436785177,-0.00836144933488978
6.9305379599441,0.163407517390276
6.93387155203643,-0.0209452717076384
6.93720514412877,0.0334655669236062
6.9405387362211,0.046857380004614
6.9438723283134,0.050415016913723
6.94720592040573,0.0948898616361817
6.95053951249807,0.0337812396833355
6.9538731045904,-0.00111324538061134
6.9572066966827,0.0119712469236159
6.96054028877503,0.0717028654227482
6.96387388086737,0.048681406648286
6.9672074729597,-0.0884777556986146
6.970541065052,0.0700295035803567
6.97387465714433,0.010051037306161
6.97720824923667,0.0634792782098164
6.980541841329,0.0883673594742708
6.9838754334213,0.193782635995138
6.98720902551363,0.0720353050523367
6.99054261760597,0.0334649475966026
6.9938762096983,0.08128699324796
6.9972098017906,0.0648665205593678
7.00054339388293,-0.0529014262262784
7.00387698597527,0.0543393828959596
7.0072105780676,-0.00277329454842301
7.0105441701599,0.00296165182237673
7.01387776225223,-0.0350546216037108
7.01721135434457,0.0871013045222184
7.0205449464369,-0.0547989505411664
7.0238785385292,0.000771870332808705
7.02721213062153,-0.0184221978000258
7.03054572271387,0.0755585149267843
7.0338793148062,0.0490377312189334
7.0372129068985,0.0383861301582561
7.04054649899083,-0.0446446479988558
7.04388009108317,0.0324328978942511
7.0472136831755,-0.112780550126549
7.0505472752678,-0.012670928326407
7.05388086736013,-0.077962644403959
7.05721445945247,-0.0617802180479535
7.0605480515448,0.0537063222325889
7.06388164363713,0.00901466470400179
7.06721523572943,-0.0303167689533656
7.07054882782177,0.00528592834065966
7.0738824199141,-0.104143192374486
7.07721601200643,0.0283994541450657
7.08054960409873,-0.0202427197889064
7.08388319619107,0.0469892795347271
7.0872167882834,0.0664397155537684
7.09055038037573,0.0298027449185043
7.09388397246803,-0.0124682849996686
7.09721756456037,-0.044163147364401
7.1005511566527,0.0445149071392202
7.10388474874503,-0.0468683308437224
7.10721834083733,-0.00217104877333495
7.11055193292967,0.0978674418348541
7.113885525022,0.0333742851831781
7.11721911711433,0.0700965110246849
7.12055270920663,0.00660987296886081
7.12388630129897,0.0432297521372473
7.1272198933913,0.107892154424784
7.13055348548363,0.054346884807853
7.13388707757593,-0.0713806341915499
7.13722066966827,0.0493395875114602
7.1405542617606,0.0648648805620982
7.14388785385293,-0.0455450052457123
7.14722144594523,0.00472850897545661
7.15055503803757,-0.00770375832644883
7.1538886301299,-0.0379591241785918
7.15722222222223,-0.0222780096367141
7.16055581431453,-0.122500534984507
7.16388940640687,-0.0172723503006596
7.1672229984992,0.991986819028003
7.17055659059153,1.02316854153977
7.17389018268383,0.945975011193635
7.17722377477617,0.863435959904029
7.1805573668685,0.956792696117595
7.18389095896083,0.935832603829381
7.18722455105313,0.917620823461702
7.19055814314547,0.891619485593155
7.1938917352378,-0.0198574253344041
7.19722532733013,0.0315803970434437
7.20055891942247,0.0606133814863376
7.20389251151477,-0.00902774037288982
7.2072261036071,-0.0859319659051497
7.21055969569943,0.105149406260581
7.21389328779177,0.0123313977847652
7.21722687988407,-0.0614423274923797
7.2205604719764,0.0149193611135996
7.22389406406873,0.059720367971424
7.22722765616107,0.000268555286029343
7.23056124825337,0.0578586864426359
7.2338948403457,-0.0854886144806969
7.23722843243803,-0.0347379826482423
7.24056202453037,-0.0248265073143955
7.24389561662267,-0.0153616422821446
7.247229208715,-0.0855131098347935
7.25056280080733,-0.0476959436582589
7.25389639289967,0.0660409565929531
7.25722998499197,0.00592911728996243
7.2605635770843,0.0751168920997029
7.26389716917663,0.0170485090131252
7.26723076126897,-0.0357295960591381
7.27056435336127,0.118944401853362
7.2738979454536,-0.00277800938458089
7.27723153754593,0.0473872727127287
7.28056512963827,0.0101900909203761
7.28389872173057,0.0817326866418143
7.2872323138229,0.0682405975910469
7.29056590591523,-0.0460662444877085
7.29389949800757,-0.0058763401694558
7.29723309009987,-0.0172002823205825
7.3005666821922,0.00924257878171059
7.30390027428453,0.0320934596399278
7.30723386637687,0.0339371200030458
7.31056745846917,0.104382156215315
7.3139010505615,-0.0323809472519541
7.31723464265383,0.140955181989901
7.32056823474617,-0.0204931453413642
7.32390182683847,0.0603469305587104
7.3272354189308,0.05506579249092
7.33056901102313,0.00989716797509785
7.33390260311547,0.106074770266097
7.3372361952078,0.0772316247272151
7.3405697873001,0.0543713878458266
7.34390337939243,0.0435742788411805
7.34723697148477,-0.0278255547847481
7.3505705635771,0.0292819592406062
7.3539041556694,0.129675362031212
7.35723774776173,0.104764763709026
7.36057133985407,0.0835892381297479
7.3639049319464,0.114553126331541
7.3672385240387,0.0419063516557924
7.37057211613103,0.176970655992705
7.37390570822337,0.109069381421005
7.3772393003157,0.0250701944408296
7.380572892408,0.154167442514263
7.38390648450033,0.173815739214165
7.38724007659267,0.148362017729691
7.390573668685,0.125961327755155
7.3939072607773,0.0443102754929344
7.39724085286963,0.0938058237470389
7.40057444496197,0.103080926922376
7.4039080370543,0.142134901552801
7.4072416291466,0.00493947398191671
7.41057522123893,0.145755616101592
7.41390881333127,0.119789919045181
7.4172424054236,0.0580973389198584
7.4205759975159,0.0581729213781792
7.42390958960823,0.058788429669797
7.42724318170057,0.154614628273647
7.4305767737929,0.232881900906248
7.4339103658852,0.121204269063555
7.43724395797753,0.159392427238411
7.44057755006987,0.145629451378389
7.4439111421622,0.19118515638625
7.4472447342545,0.0176667949313448
7.45057832634683,0.179722547533549
7.45391191843917,0.166333740854868
7.4572455105315,0.191322599024515
7.46057910262383,0.178375834865369
7.46391269471613,0.131566455316323
7.46724628680847,0.222776650042913
7.4705798789008,0.180368071106436
7.47391347099313,0.181753368338408
7.47724706308543,0.11445447659445
7.48058065517777,0.219060779170315
7.4839142472701,0.161990770388129
7.48724783936243,0.131899725738297
7.49058143145473,0.20301465508109
7.49391502354707,0.21659431342688
7.4972486156394,0.217027022976758
7.50058220773173,0.145215024829865
7.50391579982403,0.19922240781819
7.50724939191637,0.296212763360426
7.5105829840087,0.213181215437344
7.51391657610103,0.153207889026485
7.51725016819333,0.242956997822207
7.52058376028567,0.154506659831496
7.523917352378,0.17101770360217
7.52725094447033,0.247590910384895
7.53058453656263,0.213796007829019
7.53391812865497,-0.0100570700199198
7.5372517207473,0.177876030107709
7.54058531283963,0.194621227783198
7.54391890493193,0.118592325208706
7.54725249702427,0.249519420659049
7.5505860891166,0.179337015278451
7.55391968120893,0.152942254626065
7.55725327330123,0.22509183992272
7.56058686539357,0.187365890420744
7.5639204574859,0.130774474266207
7.56725404957823,0.180987305868299
7.57058764167053,0.155693023010855
7.57392123376287,0.280324979101417
7.5772548258552,0.18371796556658
7.58058841794753,0.211228232168472
7.58392201003983,0.203526359198161
7.58725560213217,0.14814606608138
7.5905891942245,0.211058066074979
7.59392278631683,0.184282043674
7.59725637840917,0.156110479016775
7.60058997050147,0.040851031477387
7.6039235625938,0.109142697748356
7.60725715468613,0.103510482185516
7.61059074677847,0.165440109846457
7.61392433887077,0.0429871720601542
7.6172579309631,0.0970279786461072
7.62059152305543,0.138473430432187
7.62392511514777,0.200652663101641
7.62725870724007,0.111543621101781
7.6305922993324,0.11296494296222
7.63392589142473,0.216587040181443
7.63725948351707,0.133678334410211
7.64059307560937,0.0258975841294227
7.6439266677017,0.0562591198890343
7.64726025979403,0.068713975960343
7.65059385188637,0.0257165522103377
7.65392744397867,0.177500059766189
7.657261036071,0.0982770331956796
7.66059462816333,0.186762180694657
7.66392822025567,0.179866109181329
7.66726181234797,0.151710949644669
7.6705954044403,0.104285158636146
7.67392899653263,0.182317878095241
7.67726258862497,0.113835847874546
7.68059618071727,0.106126263257682
7.6839297728096,0.118606361508229
7.68726336490193,0.213299007556151
7.69059695699427,0.135273699624661
7.69393054908657,0.0673804609838787
7.6972641411789,0.021611234668001
7.70059773327123,0.155647005482916
7.70393132536357,0.0330303862467428
7.70726491745587,0.198740889761097
7.7105985095482,0.0365854518034256
7.71393210164053,0.181306855303719
7.71726569373287,0.071634735623396
7.7205992858252,0.0310900178728394
7.7239328779175,0.0995490296430148
7.72726647000983,0.215393844252285
7.73060006210217,0.0303552039017784
7.73393365419447,0.0213728465146578
7.7372672462868,0.045017771645839
7.74060083837913,-0.0490973210998606
7.74393443047147,0.0852824710928647
7.7472680225638,0.0350694475958622
7.7506016146561,0.0119952397985533
7.75393520674843,0.149953510539298
7.75726879884077,0.0655375492762653
7.7606023909331,-0.00636157695058665
7.7639359830254,0.0922496753659506
7.76726957511773,-0.0313556866522837
7.77060316721007,-0.0421637207957878
7.7739367593024,0.0557153957556352
7.7772703513947,0.0601956200123828
7.78060394348703,0.146204603640983
7.78393753557937,0.142758006398976
7.7872711276717,0.0413719145690384
7.790604719764,-0.0961731778613315
7.79393831185633,0.0420504213499269
7.79727190394867,-0.0308801288925041
7.800605496041,-0.00270547234948326
7.8039390881333,0.0350585322922394
7.80727268022563,0.0473228370066287
7.81060627231797,0.0584921137023141
7.8139398644103,-0.0466714427582588
7.8172734565026,0.0237242833254769
7.82060704859493,0.0400390472197022
7.82394064068727,-0.0193885591248116
7.8272742327796,-0.000966476474169961
7.8306078248719,0.114824056432589
7.83394141696423,0.00769405151636252
7.83727500905657,0.0092968976540881
7.8406086011489,-0.0396814134999664
7.8439421932412,0.0105163397004257
7.84727578533353,0.0875068012822327
7.85060937742587,0.0731411376327617
7.8539429695182,0.0830847864048621
7.8572765616105,0.0276263817481345
7.86061015370283,0.0236917785622422
7.86394374579517,0.00956115961323898
7.8672773378875,-0.0255236870042167
7.87061092997983,0.0632375423987475
7.87394452207213,0.119817421356846
7.87727811416447,0.130080623506819
7.8806117062568,-0.0268593074157508
7.88394529834913,0.0785639909006094
7.88727889044143,-0.0232036913092195
7.89061248253377,-0.0461298139897441
7.8939460746261,-0.067779393698647
7.89727966671843,0.0490400552581607
7.90061325881073,0.042975818325431
7.90394685090307,-0.0542757393281575
7.9072804429954,-0.0204367894515628
7.91061403508773,-0.00575040229823978
7.91394762718003,0.0245479220232079
7.91728121927237,0.00074756362774378
7.9206148113647,0.0210937695865358
7.92394840345703,-0.00457704195748219
7.92728199554933,-0.0111826771214532
7.93061558764167,0.0371097856925898
7.933949179734,0.123362570761582
7.93728277182633,1.02112317677588
7.94061636391863,0.989575206828211
7.94394995601097,0.936326794622941
7.9472835481033,1.07335550486035
7.95061714019563,1.02083353401948
7.95395073228793,0.933606176496047
7.95728432438027,0.987939808693271
7.9606179164726,0.961520614447188
7.96395150856493,1.02021240927219
7.96728510065723,1.02569590062751
7.97061869274957,-0.072809934713721
7.9739522848419,0.00273007471257476
7.97728587693423,-0.0525371478352335
7.98061946902653,-0.0864611831583292
7.98395306111887,0.11248979420631
7.9872866532112,0.046809700236042
7.99062024530353,-0.00511007484388658
7.99395383739583,0.0161871189779273
7.99728742948817,-0.0414909870486343
8.0006210215805,-0.0328615922712845
8.00395461367283,-0.0320566125134951
8.00728820576517,0.0331018455699803
8.01062179785747,-0.0156996487738133
8.0139553899498,0.0324336895590363
8.01728898204213,0.0235129495434342
8.02062257413447,-0.0196714973755798
8.02395616622677,-0.0591615716819323
8.0272897583191,-0.0648460150597103
8.03062335041143,-0.0104959656435314
8.03395694250377,-0.024307304653251
8.03729053459607,0.018397651584399
8.0406241266884,-0.108880054719742
8.04395771878073,-0.0969860596446794
8.04729131087307,0.0643742752650611
8.05062490296537,-0.0899791868801215
8.0539584950577,-0.0208088626570279
8.05729208715003,0.030217569635826
8.06062567924237,0.0532110915165573
8.06395927133467,0.00259578299712324
8.067292863427,0.0913289364243619
8.07062645551933,0.071684035687016
8.07396004761167,0.109514247335415
8.07729363970397,0.0564578143616407
8.0806272317963,-0.00464592887479917
8.08396082388863,0.0312310216173081
8.08729441598097,0.0634525353790605
8.09062800807327,0.125629759696209
8.0939616001656,0.0639107862287511
8.09729519225793,0.0848584384101598
8.10062878435027,0.00132644848767163
8.10396237644257,-0.0338234774739161
8.1072959685349,0.0508134679582508
8.11062956062723,0.0966795661537985
8.11396315271957,0.0540116473725148
8.11729674481187,0.107144870292217
8.1206303369042,0.121582398867487
8.12396392899653,0.0263673602844851
8.12729752108887,-0.0203375266630884
8.1306311131812,0.133299374136704
8.1339647052735,0.0961217912667004
8.13729829736583,-0.0014669887410769
8.14063188945817,0.188982914653166
8.1439654815505,-0.0173620336664444
8.1472990736428,-0.00401732008428254
8.15063266573513,0.142861158982951
8.15396625782747,0.18081172220009
8.1572998499198,0.13959741008447
8.1606334420121,0.0864811052553634
8.16396703410443,0.0289845738501369
8.16730062619677,0.0624393210336629
8.1706342182891,0.0931666050438176
8.1739678103814,0.0177519183703793
8.17730140247373,0.0235611014343336
8.18063499456607,0.0232481402540244
8.1839685866584,0.138352139822718
8.1873021787507,0.062649125206449
8.19063577084303,0.136337106589241
8.19396936293537,0.142206814925211
8.1973029550277,0.127645071189506
8.20063654712,0.178218926320199
8.20397013921233,0.0669788809894704
8.20730373130467,-0.0216399304376531
8.210637323397,0.208364317159018
8.2139709154893,0.101268257972201
8.21730450758163,0.111531170680655
8.22063809967397,0.131111134287813
8.2239716917663,0.0880908329421738
8.2273052838586,0.115323890549963
8.23063887595093,0.0275167856460435
8.23397246804327,0.148775833520866
8.2373060601356,0.175932955521919
8.2406396522279,0.168811640535071
8.24397324432023,0.149074557460163
8.24730683641257,0.127233189686176
8.2506404285049,0.0749016520466533
8.2539740205972,0.245727127139887
8.25730761268953,0.22872835604884
8.26064120478187,0.13547481410209
8.2639747968742,0.0752014466641997
8.26730838896653,0.161587198077382
8.27064198105883,0.180350774673853
8.27397557315117,0.184502566013033
8.2773091652435,0.291897526055374
8.28064275733583,0.185382891208762
8.28397634942813,0.149773110941286
8.28730994152047,0.178526852627537
8.2906435336128,0.217318249053661
8.29397712570513,0.203622856931302
8.29731071779743,0.194744075665535
8.30064430988977,0.171237024089901
8.3039779019821,0.135312557875366
8.30731149407443,0.0719485839371385
8.31064508616673,0.137938590441291
8.31397867825907,0.0882069267706202
8.3173122703514,0.230780729529884
8.32064586244373,0.240545242700261
8.32397945453603,0.138001042881211
8.32731304662837,0.272029377081258
8.3306466387207,0.259136330388679
8.33398023081303,0.190967587923553
8.33731382290533,0.169355176796711
8.34064741499767,0.193261347017755
8.34398100709,0.223756000719994
8.34731459918233,0.256871846431744
8.35064819127463,0.200262126005124
8.35398178336697,0.136116695398186
8.3573153754593,0.173520812413836
8.36064896755163,0.11157663293872
8.36398255964393,0.123663448248649
8.36731615173627,0.0893958015962067
8.3706497438286,0.139574849671531
8.37398333592093,0.129808677448835
8.37731692801323,0.124476975283813
8.38065052010557,0.215200795553628
8.3839841121979,0.192043079758719
8.38731770429023,0.255253820087941
8.39065129638257,0.175229690103355
8.39398488847487,0.2318646854096
8.3973184805672,0.149851127125722
8.40065207265953,0.199073962730459
8.40398566475187,0.0879368683465132
8.40731925684417,0.144020373728513
8.4106528489365,0.185355343506306
8.41398644102883,0.206013719551928
8.41732003312117,0.251262435825845
8.42065362521347,0.0286999845382801
8.4239872173058,0.18945171498576
8.42732080939813,0.172525489893336
8.43065440149047,0.0586671115900614
8.43398799358277,0.0857744544389734
8.4373215856751,0.208587756689553
8.44065517776743,0.0249172231783604
8.44398876985977,0.139169989411771
8.44732236195207,0.123366039444438
8.4506559540444,0.136357310182692
8.45398954613673,0.0956496067945905
8.45732313822907,0.087597281521197
8.46065673032137,0.226527659903704
8.4639903224137,0.119390854187213
8.46732391450603,0.0490006454806809
8.47065750659837,-0.00146959071287497
8.47399109869067,0.0872712049149951
8.477324690783,0.142383303716598
8.48065828287533,0.134317684566681
8.48399187496767,0.0643694726305083
8.48732546705997,0.084284806697986
8.4906590591523,0.0936124611049751
8.49399265124463,0.0814019019557297
8.49732624333697,0.166484943463503
8.50065983542927,0.197423519134434
8.5039934275216,0.0941224614791211
8.50732701961393,0.190546637321463
8.51066061170627,0.100146525555977
8.51399420379857,-0.0219790045411104
8.5173277958909,-0.0104030590442102
8.52066138798323,-0.00601502479207944
8.52399498007557,-0.044113579511262
8.5273285721679,0.0237875459148475
8.5306621642602,-0.0981058366129084
8.53399575635253,0.0932457327065631
8.53732934844487,0.0735191415426004
8.5406629405372,0.0962298431169103
8.5439965326295,0.139955459424846
8.54733012472183,0.0637981187079785
8.55066371681417,0.0654483833917022
8.5539973089065,0.0744975455405117
8.5573309009988,0.0305599681580927
8.56066449309113,0.027093476949334
8.56399808518347,0.126870602751022
8.5673316772758,0.120674835157329
8.5706652693681,-0.00170028771164134
8.57399886146043,0.0514490140758219
8.57733245355277,0.0328221699447941
8.5806660456451,0.04377193559727
8.5839996377374,-0.0774199999221742
8.58733322982973,-0.0531651651964629
8.59066682192207,0.0416480812573832
8.5940004140144,0.0450106897022645
8.5973340061067,0.00914382634337299
8.60066759819903,-0.0534679440647217
8.60400119029137,0.00559629394954714
8.6073347823837,0.0318668141114326
8.610668374476,0.0360075649611083
8.61400196656833,0.103054942124763
8.61733555866067,0.0442242856526794
8.620669150753,-0.0244653795350488
8.6240027428453,0.00588324898626966
8.62733633493763,0.00981826820132747
8.63066992702997,-0.08474697930397
8.6340035191223,0.0203128618711394
8.6373371112146,0.0131670195403464
8.64067070330694,-0.0901823300241262
8.64400429539927,-0.00426512169036354
8.6473378874916,-0.00688060624770744
8.65067147958393,0.0698664679674399
8.65400507167623,-0.116742606146628
8.65733866376857,0.0829107043169762
8.6606722558609,-0.0146527404697707
8.6640058479532,-0.106466621702216
8.66733944004553,-0.0225026051114081
8.67067303213787,-0.0416990846512134
8.6740066242302,-0.0105954010078404
8.67734021632253,0.149270452676696
8.68067380841483,0.00561995750208007
8.68400740050717,-0.0409319933887869
8.6873409925995,-0.0102661582908153
8.69067458469183,0.0543080145704357
8.69400817678413,-0.0561447857768768
8.69734176887647,0.0844687922160814
8.7006753609688,-0.0292959275883194
8.70400895306113,0.00508019193267652
8.70734254515343,0.0717199719085044
8.71067613724577,-0.0444646863482041
8.7140097293381,0.0331383105116073
8.71734332143043,0.0388397222856275
8.72067691352273,-0.126062780737164
8.72401050561507,0.0400963939849924
8.7273440977074,0.0438759934828537
8.73067768979973,-0.0607445558478419
8.73401128189203,-0.0563392228097826
8.73734487398437,0.0336884200969418
8.7406784660767,-0.0651714249226966
8.74401205816903,0.0803270825075641
8.74734565026133,-0.0429589882936176
8.75067924235367,0.0517770913259516
8.754012834446,-0.0575862505548014
8.75734642653833,-0.0723259473009099
8.76068001863063,-0.0140104405732481
8.76401361072297,0.0848890704926451
8.7673472028153,0.000991235220482459
8.77068079490763,-0.0301758373343785
8.77401438699993,0.0234213399732408
8.77734797909227,-0.0374352257818613
8.7806815711846,0.0572622391031464
8.78401516327693,0.123101003268233
8.78734875536923,0.0358530861298146
8.79068234746157,0.0720450582025113
8.7940159395539,1.0592117442787
8.79734953164623,1.11593204700887
8.80068312373857,1.0130906728943
8.80401671583087,1.05557686837588
8.8073503079232,1.04848628100345
8.81068390001553,1.09507584853833
8.81401749210787,0.944843869106397
8.81735108420017,1.02735020925559
8.8206846762925,1.01211818591135
8.82401826838483,0.0488910711273532
8.82735186047717,0.0306091778052119
8.83068545256947,0.05476976210595
8.8340190446618,0.00539032136099198
8.83735263675413,-0.0124405236775002
8.84068622884647,-0.0251923794371279
8.84401982093877,-0.0502709142463049
8.8473534130311,0.0189348972431265
8.85068700512343,0.0803455686780849
8.85402059721577,-0.0249432793958266
8.85735418930807,-0.0190130558800944
8.8606877814004,-0.0518318321188784
8.86402137349273,0.0374548189160495
8.86735496558507,-0.0575489121097002
8.87068855767737,0.0716343731786089
8.8740221497697,-0.0708298376091707
8.87735574186204,-0.0581887383709634
8.88068933395437,-0.0493275537126704
8.88402292604667,0.0426171964991439
8.887356518139,-0.0392946627555442
8.89069011023133,-0.085401543278841
8.89402370232367,0.016398227599078
8.89735729441597,-0.00686421365929247
8.9006908865083,0.00346196551510906
8.90402447860063,0.0735348922911432
8.90735807069297,0.0558150968768541
8.91069166278527,-0.0689982243772377
8.9140252548776,0.0241613909502003
8.91735884696993,-0.00674130568832546
8.92069243906227,0.010036398760933
8.92402603115457,0.0127180438010808
8.9273596232469,0.0386885029726211
8.93069321533923,0.102908449809618
8.93402680743157,-0.0336047556104329
8.9373603995239,0.0685204179989868
8.9406939916162,0.0987668965304307
8.94402758370853,0.103480772644876
8.94736117580087,-0.00283925962649619
8.9506947678932,0.118079208970508
8.9540283599855,0.00909447950208425
8.95736195207783,0.0275913642292819
8.96069554417017,0.0147683445605641
8.9640291362625,0.0563557652537074
8.9673627283548,0.0637708361749819
8.97069632044713,0.110117629541547
8.97402991253947,-0.0543777182548219
8.9773635046318,0.0655306550323689
8.9806970967241,0.0956134486139139
8.98403068881643,-0.0177849934653205
8.98736428090877,0.111728556125521
8.9906978730011,-0.00297193073424648
8.9940314650934,-0.0300903431127534
8.99736505718573,0.18314783496822
9.00069864927807,0.121412638975051
9.0040322413704,0.0513802973367199
9.0073658334627,0.161661318198859
9.01069942555503,0.154101404675621
9.01403301764737,0.136970972571414
9.0173666097397,0.118639358467371
9.020700201832,0.0989585913856505
9.02403379392433,0.0146596085183924
9.02736738601667,0.105001822429834
9.030700978109,0.175397937126809
9.0340345702013,0.0573078764150052
9.03736816229363,0.0787447887916983
9.04070175438597,0.228135390731514
9.0440353464783,0.128361709351076
9.0473689385706,-0.0504384922680337
9.05070253066293,0.0853402189917012
9.05403612275527,0.165019508900058
9.0573697148476,0.141676945879406
9.06070330693993,0.0563354715750474
9.06403689903223,0.0636305465635394
9.06737049112457,0.140795654462687
9.0707040832169,0.202895423014826
9.07403767530923,0.0975120613355952
9.07737126740153,0.264648314187733
9.08070485949387,0.131771593628272
9.0840384515862,0.160690462942428
9.08737204367853,0.10751827761024
9.09070563577083,0.0493034014301402
9.09403922786317,0.188790252028048
9.0973728199555,0.179588917315935
9.10070641204783,0.0627663495491814
9.10404000414013,0.180137800609407
9.10737359623247,0.0184034730341223
9.1107071883248,0.0850404557340038
9.11404078041714,0.142854310083346
9.11737437250943,0.145754104381537
9.12070796460177,0.137263886310303
9.1240415566941,0.129020533214324
9.12737514878643,0.182202052195544
9.13070874087873,0.318757114600592
9.13404233297107,0.0924090987682949
9.1373759250634,0.22976565448741
9.14070951715573,0.186799954305731
9.14404310924803,0.155059817245299
9.14737670134037,0.194281003082096
9.1507102934327,0.233548031368874
9.15404388552503,0.208476529720735
9.15737747761733,0.101998377834814
9.16071106970967,0.133644512941116
9.164044661802,0.210503591208258
9.16737825389433,0.150379550611737
9.17071184598663,0.1432205195213
9.17404543807897,0.15877175153002
9.1773790301713,0.251852693353629
9.18071262226363,0.298449231576796
9.18404621435593,0.181027913409596
9.18737980644827,0.175411344822326
9.1907133985406,0.215672383367111
9.19404699063293,0.185809887217702
9.19738058272527,0.209528346610997
9.20071417481757,0.163492628834054
9.2040477669099,0.116965028094583
9.20738135900223,0.168534468217066
9.21071495109457,0.288425781191252
9.21404854318687,0.21757318219755
9.2173821352792,0.21680335141802
9.22071572737153,0.193704515275927
9.22404931946387,0.136385706699392
9.22738291155617,0.177931338
9.2307165036485,0.201042442364584
9.23405009574083,0.216765741851066
9.23738368783317,0.24657041089817
9.24071727992547,0.167060220267419
9.2440508720178,0.212314458871078
9.24738446411013,0.156125538387072
9.25071805620247,0.188995104110815
9.25405164829477,0.0838529666315994
9.2573852403871,0.168073993434615
9.26071883247943,0.166085034186202
9.26405242457177,0.229869264120907
9.26738601666407,0.225918098251104
9.2707196087564,0.110250271006853
9.27405320084873,0.11380269421072
9.27738679294107,0.10525457704062
9.28072038503337,0.22467885467163
9.2840539771257,0.240363500106623
9.28738756921803,0.0525708387872687
9.29072116131037,0.0618346945858976
9.29405475340267,0.190190552348821
9.297388345495,0.21022065166318
9.30072193758733,0.104645209813871
9.30405552967967,0.0434891338047153
9.30738912177197,0.0731637306745114
9.3107227138643,0.12641104731926
9.31405630595663,0.222583821301251
9.31738989804897,0.196750681245323
9.3207234901413,0.0843397213603001
9.3240570822336,0.140950667990881
9.32739067432593,0.0906237924086214
9.33072426641827,0.184793848194898
9.3340578585106,0.0808468598195254
9.3373914506029,0.011257879175569
9.34072504269523,0.0441652886662558
9.34405863478757,0.0969007138634801
9.3473922268799,0.0803002903110876
9.3507258189722,0.0469598226427174
9.35405941106453,0.124120613234156
9.35739300315687,0.0306253833994726
9.3607265952492,0.0930225278707551
9.3640601873415,0.105999420206786
9.36739377943383,0.112483116468726
9.37072737152617,0.01659843854917
9.3740609636185,0.135893464999495
9.3773945557108,0.0722364548658499
9.38072814780313,0.117085884096809
9.38406173989547,0.0173696969090103
9.3873953319878,0.0767162370936906
9.3907289240801,0.134028938107802
9.39406251617243,-0.072407552577335
9.39739610826477,0.0903121414817078
9.4007297003571,0.0579786812355368
9.4040632924494,0.138006168209402
9.40739688454173,0.0593856253979964
9.41073047663407,0.0467703476196406
9.4140640687264,0.044121789582843
9.4173976608187,0.017596629042305
9.42073125291103,0.150576503022371
9.42406484500337,0.0160471672856833
9.4273984370957,-0.0546166731206939
9.430732029188,0.0522523887280306
9.43406562128033,0.0588006630154056
9.43739921337267,0.0293570082300752
9.440732805465,0.0054301895934817
9.4440663975573,0.0810078504829035
9.44739998964963,0.0790735232891753
9.45073358174197,-0.00305413302747735
9.4540671738343,-0.056686210937951
9.45740076592663,0.00208576782829985
9.46073435801893,0.0952818363784186
9.46406795011127,0.0961812363359897
9.4674015422036,0.0972672374141891
9.47073513429593,0.0172280295721009
9.47406872638823,-0.0493554835122759
9.47740231848057,0.0298014151782695
9.4807359105729,-0.0720181579563203
9.48406950266523,-0.0530489800316053
9.48740309475753,0.0975288411725523
9.49073668684987,0.0285181272152442
9.4940702789422,0.109138800725904
9.49740387103453,-0.0898691086100543
9.50073746312683,-0.0099283114221484
9.50407105521917,0.0634458373038603
9.5074046473115,0.0943279001041592
9.51073823940383,-0.147328661236286
9.51407183149613,-0.0261998460573558
9.51740542358847,-0.00403299864028883
9.5207390156808,-0.0566307101630712
9.52407260777313,0.0524039302114283
9.52740619986543,0.0481331758785043
9.53073979195777,-0.0954093051286299
9.5340733840501,0.0239146372865992
9.53740697614243,0.0396840757557427
9.54074056823473,-0.00857732002989645
9.54407416032707,-0.0890117276280688
9.5474077524194,0.006192093259125
9.55074134451173,0.0513970325311397
9.55407493660403,0.0291994147872864
9.55740852869637,-0.0181838328960355
9.5607421207887,0.0563666444583458
9.56407571288103,0.0302975570072048
9.56740930497333,0.0227739713972402
9.57074289706567,-0.0215403923888589
9.574076489158,-0.0390913470695452
9.57741008125033,0.0117507061862062
9.58074367334263,-0.0276166100515011
9.58407726543497,-0.0691067154624009
9.5874108575273,-0.0189448380996531
9.59074444961963,-0.0354280773110025
9.59407804171193,0.0136281928621816
9.59741163380427,-0.0195940308608261
9.6007452258966,0.0072852328059391
9.60407881798893,0.0473266825975326
9.60741241008127,0.0366599491899589
9.61074600217357,0.0131294089239427
9.6140795942659,0.0430554127958388
9.61741318635823,-0.0276782280058378
9.62074677845057,-0.0295903023700408
9.62408037054287,-0.089009900671695
9.6274139626352,0.027167567540017
9.63074755472753,-0.148735253070114
9.63408114681987,0.0792472474385147
9.63741473891217,-0.0350162635845884
9.6407483310045,-0.085430238835613
9.64408192309683,0.0750671860364519
9.64741551518917,0.0867254815900734
9.65074910728147,-0.0459888388988386
9.6540826993738,-0.144017177936168
9.65741629146613,0.800678942959011
9.66074988355847,0.909860572804158
9.66408347565077,0.861033003992784
9.6674170677431,0.847801002604881
9.67075065983543,0.934336573580036
9.67408425192777,0.90783255310265
9.67741784402007,0.902637286986545
9.6807514361124,0.788077285823634
9.68408502820473,0.875870202004342
9.68741862029707,0.946960041033112
9.69075221238937,-0.112003672067454
9.6940858044817,-0.115320484040161
9.69741939657403,-0.0262525592821283
9.70075298866637,-0.0318734935635005
9.70408658075867,0.0498680300926112
9.707420172851,-0.0302184932777924
9.71075376494333,-0.0621013873386634
9.71408735703567,-0.0235431465283457
9.71742094912797,0.0509660577647361
9.7207545412203,-0.0208803834275835
9.72408813331263,0.0646951374525429
9.72742172540497,-0.0831267000734819
9.7307553174973,0.0122284117988424
9.7340889095896,0.0449817662791654
9.73742250168193,0.0149512211951851
9.74075609377427,-0.0766460087576983
9.7440896858666,-0.0263618613896668
9.7474232779589,0.0256072548469249
9.75075687005123,-0.0524539449918694
9.75409046214357,-0.0432344246157875
9.7574240542359,-0.0266906358577763
9.7607576463282,-0.0536256267298447
9.76409123842053,-0.0544965635150512
9.76742483051287,-0.022808382088438
9.7707584226052,-0.0757281608811851
9.7740920146975,-0.0270398120108978
9.77742560678983,0.023455905922919
9.78075919888217,0.0184353135707993
9.7840927909745,-0.0603450963162673
9.7874263830668,-0.00452444886265487
9.79075997515913,0.0129836763444982
9.79409356725147,0.0889550519228576
9.7974271593438,-0.039672465290096
9.8007607514361,0.0578599789761227
9.80409434352843,0.0139753338358413
9.80742793562077,0.0599652692958196
9.8107615277131,0.0928800580323412
9.8140951198054,-0.0548824644857923
9.81742871189773,0.0320124351829031
9.82076230399007,0.0206929758800628
9.8240958960824,0.00680815646179477
9.8274294881747,-0.00166162785118635
9.83076308026703,0.0730905160399829
9.83409667235937,0.142114560679854
9.8374302644517,0.0599657379189742
9.840763856544,0.0619472552341966
9.84409744863633,0.0232294585178128
9.84743104072867,-0.0847424351835362
9.850764632821,0.131779322987213
9.8540982249133,0.0183009818398092
9.85743181700563,0.00257078012817104
9.86076540909797,0.00397249971028089
9.8640990011903,0.0825443799330919
9.86743259328263,0.115472931723572
9.87076618537494,-0.03460116800396
9.87409977746727,0.078793547453022
9.8774333695596,0.194984687035209
9.88076696165193,0.176659763290446
9.88410055374423,0.1879244537609
9.88743414583657,0.0688479160072249
9.8907677379289,0.0228857507013224
9.89410133002123,0.121995475507546
9.89743492211353,0.0956872016277564
9.90076851420587,0.246212251711894
9.9041021062982,0.107689706001816
9.90743569839053,0.131043404550151
9.91076929048283,0.0864938807827429
9.91410288257517,0.12059017948618
9.9174364746675,-0.000940189382116811
9.92077006675983,0.248385175249255
9.92410365885213,0.106166269753081
9.92743725094447,0.0652060721535097
9.9307708430368,0.104957716281503
9.93410443512913,0.0782543662117281
9.93743802722143,0.142904572155429
9.94077161931377,0.0885329817671551
9.9441052114061,0.135218602950616
9.94743880349843,0.0975873723835566
9.95077239559073,0.0757386706557825
9.95410598768307,0.213560959140859
9.9574395797754,0.263169529431216
9.96077317186773,0.121525618118302
9.96410676396003,0.138718898594584
9.96744035605237,0.108832269931449
9.9707739481447,0.131808461580147
9.97410754023703,0.16909107316999
9.97744113232933,0.107713139586653
9.98077472442167,0.0936448420050853
9.984108316514,0.131025171704562
9.98744190860633,0.170654555417798
9.99077550069867,0.23238332798999
9.99410909279097,0.147270866201164
9.9974426848833,0.265195075452428
10.0007762769756,0.164031642901229
10.004109869068,0.162030777224516
10.0074434611603,0.135320749255674
10.0107770532526,0.0973400636826299
10.0141106453449,0.216464776757612
10.0174442374373,0.163542089236048
10.0207778295296,0.201198310947878
10.0241114216219,0.135127377240137
10.0274450137142,0.194944228574864
10.0307786058066,0.224874106617486
10.0341121978989,0.179833169555706
10.0374457899912,0.188617747593131
10.0407793820835,0.100428339758188
10.0441129741759,0.160700329393862
10.0474465662682,0.185121454729587
10.0507801583605,0.122527213046412
10.0541137504528,0.14230342495574
10.0574473425452,0.34849794273199
10.0607809346375,0.229783473435735
10.0641145267298,0.237963671800368
10.0674481188221,0.145812504463799
10.0707817109145,0.143746979573704
10.0741153030068,0.217891253804823
10.0774488950991,0.215924763455157
10.0807824871914,0.206601413415174
10.0841160792838,0.126082036214389
10.0874496713761,0.179244492887158
10.0907832634684,0.213921779148519
10.0941168555607,0.184854906174831
10.0974504476531,0.175207560468454
10.1007840397454,0.205131336065134
10.1041176318377,0.142995826328421
10.10745122393,0.125003009096954
10.1107848160224,0.112921472153227
10.1141184081147,0.127681952187193
10.117452000207,0.299321143936985
10.1207855922993,0.174858938315856
10.1241191843917,0.0778353721061845
10.127452776484,0.214541493863064
10.1307863685763,0.177244406581839
10.1341199606686,0.259306041667908
10.137453552761,0.175433194297136
10.1407871448533,0.169973955037453
10.1441207369456,0.134423554217451
10.1474543290379,0.152758628185844
10.1507879211303,0.0460842269037495
10.1541215132226,0.018414529288598
10.1574551053149,0.182516040521482
10.1607886974072,0.108705949456753
10.1641222894996,0.176634451681391
10.1674558815919,0.146697254856675
10.1707894736842,0.116098119648765
10.1741230657765,0.149240903600734
10.1774566578689,0.1671068849782
10.1807902499612,0.21902619658785
10.1841238420535,0.0920209325167436
10.1874574341458,0.137604634968399
10.1907910262382,0.194610722748275
10.1941246183305,0.0632698597645216
10.1974582104228,0.126212261998418
10.2007918025151,0.0559966844047338
10.2041253946075,0.135614074748441
10.2074589866998,0.0179784135192254
10.2107925787921,0.166140335609379
10.2141261708844,0.0511406369089274
10.2174597629768,0.0939839783825155
10.2207933550691,0.0678268870241905
10.2241269471614,0.0559737016965492
10.2274605392537,-0.0166674674729913
10.2307941313461,-0.0342887113224247
10.2341277234384,0.13531766563497
10.2374613155307,0.116333747051611
10.240794907623,0.0867789033456948
10.2441284997154,0.110981879517442
10.2474620918077,0.139041028267491
10.2507956839,0.110846101478078
10.2541292759923,0.00674930247016201
10.2574628680847,0.073328309490531
10.260796460177,0.0707688484265256
10.2641300522693,0.162354976330129
10.2674636443616,0.123547084902264
10.270797236454,0.11820524684678
10.2741308285463,0.0321718899580617
10.2774644206386,0.0456733352272084
10.2807980127309,0.00397067875835292
10.2841316048233,0.0158565054484019
10.2874651969156,0.0340475990155874
10.2907987890079,0.00945002598672534
10.2941323811002,0.1431686673372
10.2974659731926,0.0946120495944342
10.3007995652849,0.0143710057893522
10.3041331573772,0.0778115824181935
10.3074667494695,-0.0433389905997063
10.3108003415619,-0.00483040757063359
10.3141339336542,0.0880226084755709
10.3174675257465,0.0297874973421512
10.3208011178388,0.010659724401728
10.3241347099312,-0.00532216408491137
10.3274683020235,-0.0655322489693756
10.3308018941158,-0.0806278241384471
10.3341354862081,0.0600252881353979
10.3374690783005,0.0532933957787066
10.3408026703928,-0.0480168622417964
10.3441362624851,0.0244117344578878
10.3474698545774,-0.057139120191108
10.3508034466698,0.0486009699666141
10.3541370387621,-0.137466449909392
10.3574706308544,0.0681678891537339
10.3608042229467,-0.00563619926234195
10.3641378150391,0.0975707770500642
10.3674714071314,-0.0220014279288314
10.3708049992237,0.00402285836461565
10.374138591316,0.0250877836017619
10.3774721834084,0.000796938945810476
10.3808057755007,-0.00696121975827584
10.384139367593,-0.0364795182385928
10.3874729596853,-0.0491879703572243
10.3908065517777,0.00307923297167992
10.39414014387,-0.111564403734637
10.3974737359623,-0.00908008268950254
10.4008073280547,-0.0638832852762378
10.404140920147,0.131073036022914
10.4074745122393,0.0146160271173489
10.4108081043316,-0.0769742804016874
10.414141696424,-0.0197719052978782
10.4174752885163,0.068015429838491
10.4208088806086,-0.0134000324827146
10.4241424727009,-0.069101569535347
10.4274760647933,0.06271039539054
10.4308096568856,0.0346705507397683
10.4341432489779,0.0471770868467098
10.4374768410702,-0.0833923842183556
10.4408104331626,-0.0855246715874529
10.4441440252549,0.00997957212672619
10.4474776173472,-0.0213347011860374
10.4508112094395,0.00672750184230751
10.4541448015319,0.0348977141398013
10.4574783936242,-0.0585589393469766
10.4608119857165,-0.0422721921579312
10.4641455778088,-0.0219925786073193
10.4674791699012,0.0886411511412656
10.4708127619935,-0.0412681683334367
10.4741463540858,0.00829066871329053
10.4774799461781,0.0310521304940615
10.4808135382705,-0.0163130277542668
10.4841471303628,1.13344309581608
10.4874807224551,1.13990089924127
10.4908143145474,1.09123695929457
10.4941479066398,1.13914044168348
10.4974814987321,1.03626095400692
10.5008150908244,1.06924446962362
10.5041486829167,1.04856395852045
10.5074822750091,1.07146339475856
10.5108158671014,1.08245347980795
10.5141494591937,1.06101448074831
10.517483051286,-0.0615338703115651
10.5208166433784,-0.101905930067915
10.5241502354707,0.0524929411273005
10.527483827563,0.016881504730049
10.5308174196553,-0.0504240459472144
10.5341510117477,0.139341669894526
10.53748460384,0.149136497699584
10.5408181959323,0.0828624081470663
10.5441517880246,0.0534807300821962
10.547485380117,0.0484708253863031
10.5508189722093,-0.0556472899422839
10.5541525643016,-0.0862228575633647
10.5574861563939,-0.0031112351258641
10.5608197484863,-0.0487903398778861
10.5641533405786,0.0101476576661875
10.5674869326709,0.0787790639567117
10.5708205247632,-0.0565353033349041
10.5741541168556,0.0791704189329403
10.5774877089479,0.0374115222209284
10.5808213010402,0.0090956373208796
10.5841548931325,0.159830427043475
10.5874884852249,-0.0352324752456173
10.5908220773172,0.0587033439662388
10.5941556694095,0.029542551502003
10.5974892615018,-0.0726453062792643
10.6008228535942,-0.0890586201412954
10.6041564456865,-0.0860136534155319
10.6074900377788,0.103547378542485
10.6108236298711,0.0404456833347974
10.6141572219635,0.0290801699594268
10.6174908140558,0.00321116593776104
10.6208244061481,0.00119156260769134
10.6241579982404,-0.0619921372815867
10.6274915903328,0.0466851189427624
10.6308251824251,-0.00753261556539499
10.6341587745174,-0.0111371605122253
10.6374923666097,0.123435707786005
10.6408259587021,0.0195674310497559
10.6441595507944,0.151884044633135
10.6474931428867,0.065346849986764
10.650826734979,-0.0240899893479715
10.6541603270714,0.0996095300093776
10.6574939191637,0.0474455285913374
10.660827511256,-0.029053124181982
10.6641611033483,-0.0909371887539603
10.6674946954407,0.0719986656751889
10.670828287533,-0.0267120361361453
10.6741618796253,0.134904774616767
10.6774954717176,0.0526991661192712
10.68082906381,-0.00743051828842929
10.6841626559023,0.0430721265672428
10.6874962479946,0.0294853080241881
10.6908298400869,-0.00279456943490002
10.6941634321793,0.014368952454644
10.6974970242716,0.142495532248589
10.7008306163639,0.143419551379704
10.7041642084562,0.0587402118186769
10.7074978005486,0.152494834506621
10.7108313926409,0.0535218467800811
10.7141649847332,0.0743944175998908
10.7174985768255,0.106261409915778
10.7208321689179,0.218661012163656
10.7241657610102,0.106899319221901
10.7274993531025,0.0991326643951032
10.7308329451948,0.000689428247028778
10.7341665372872,0.0412113384053453
10.7375001293795,0.0725250526552055
10.7408337214718,0.117260692246089
10.7441673135641,0.108287221406658
10.7475009056565,0.0788789358672896
10.7508344977488,0.180751816170771
10.7541680898411,0.12565561920092
10.7575016819334,0.0974996839891791
10.7608352740258,0.0696753919419377
10.7641688661181,0.165939223534655
10.7675024582104,0.112418041263145
10.7708360503027,0.121160400253668
10.7741696423951,0.0676999435875184
10.7775032344874,0.171432898357459
10.7808368265797,0.197847043342018
10.784170418672,0.103461496962089
10.7875040107644,0.199007769919049
10.7908376028567,0.0891764298221964
10.794171194949,0.113870143889094
10.7975047870414,0.250820242373711
10.8008383791337,0.117608473434811
10.804171971226,0.321039126923625
10.8075055633183,0.238460403165737
10.8108391554107,0.0856294718283667
10.814172747503,0.224089196973707
10.8175063395953,0.194747540835725
10.8208399316876,0.168612296264172
10.82417352378,0.147359352698947
10.8275071158723,0.251153917047778
10.8308407079646,0.185415029451742
10.8341743000569,0.114418862024774
10.8375078921493,0.152955585093161
10.8408414842416,0.177134019733899
10.8441750763339,0.24880924556086
10.8475086684262,0.219975483073776
10.8508422605186,0.204130580306846
10.8541758526109,0.165068522304428
10.8575094447032,0.182623401470538
10.8608430367955,0.27561602432637
10.8641766288879,0.11211486889512
10.8675102209802,0.167576680491385
10.8708438130725,0.161488348782203
10.8741774051648,0.155681206055829
10.8775109972572,0.188186030570114
10.8808445893495,0.205192716375645
10.8841781814418,0.189986392506348
10.8875117735341,0.245193342319864
10.8908453656265,0.153202950230002
10.8941789577188,0.0822554934084685
10.8975125498111,0.194375396243165
10.9008461419034,0.206095243070701
10.9041797339958,0.163176785549972
10.9075133260881,0.187799705040149
10.9108469181804,0.266745432853983
10.9141805102727,0.209424212121788
10.9175141023651,0.0957580234256504
10.9208476944574,0.155001550431866
10.9241812865497,0.224400550752918
10.927514878642,0.18315066294995
10.9308484707344,0.205935671248778
10.9341820628267,0.181433665119396
10.937515654919,0.117611039954768
10.9408492470113,0.220014242181565
10.9441828391037,0.0665489068664103
10.947516431196,0.0491538862684846
10.9508500232883,0.177835771676391
10.9541836153806,0.154425437057712
10.957517207473,0.293442626905857
10.9608507995653,0.0746003743971424
10.9641843916576,0.10171838266369
10.9675179837499,0.170342813789905
10.9708515758423,0.15416755419973
10.9741851679346,0.033456412467167
10.9775187600269,0.181327324355856
10.9808523521192,0.121354996231721
10.9841859442116,0.114212773719543
10.9875195363039,0.105710228633209
10.9908531283962,0.098805784928788
10.9941867204885,0.111780429739984
10.9975203125809,0.0611488044840533
11.0008539046732,0.1500941031722
11.0041874967655,0.131661222836658
11.0075210888578,0.0118788262988473
11.0108546809502,0.157561020513914
11.0141882730425,0.0538026884777947
11.0175218651348,0.129370701899309
11.0208554572271,0.0825886380930196
11.0241890493195,-0.0266158639592538
11.0275226414118,0.0635208470762458
11.0308562335041,0.0559132472659045
11.0341898255964,0.0767980053610417
11.0375234176888,0.0615797384861969
11.0408570097811,0.0470569921883957
11.0441906018734,0.077211827775038
11.0475241939657,0.145857712055476
11.0508577860581,0.102499107759719
11.0541913781504,0.0632829260627478
11.0575249702427,0.0105350021557318
11.060858562335,0.0752421948566458
11.0641921544274,0.0721471698741168
11.0675257465197,0.0655993847180806
11.070859338612,0.164013461673695
11.0741929307043,0.0945234595796616
11.0775265227967,0.203374810448673
11.080860114889,0.0775321224806055
11.0841937069813,0.0662785519101602
11.0875272990736,0.0289008318096706
11.090860891166,0.00999233876423041
11.0941944832583,-0.0501838924048986
11.0975280753506,0.0784954247142093
11.1008616674429,0.027773868337576
11.1041952595353,0.0608559137840958
11.1075288516276,-0.0497027994084691
11.1108624437199,0.00900330064098897
11.1141960358122,-0.0157754526054591
11.1175296279046,0.135444648993598
11.1208632199969,0.10002504045596
11.1241968120892,0.0158836292494361
11.1275304041815,0.0615745746326934
11.1308639962739,-0.0572332601643354
11.1341975883662,0.0648074631619683
11.1375311804585,-0.0475166920720977
11.1408647725508,0.0984918698231513
11.1441983646432,0.0572045921458775
11.1475319567355,-0.0250882338899882
11.1508655488278,-0.0561076155424382
11.1541991409201,0.0134507295431888
11.1575327330125,0.0540623449138178
11.1608663251048,0.0261054125382798
11.1641999171971,0.0740718894473131
11.1675335092894,0.0108716891025623
11.1708671013818,-0.0966342430766001
11.1742006934741,0.046567807067196
11.1775342855664,-0.00551712816489363
11.1808678776587,0.0395010850719449
11.1842014697511,0.0276494963784748
11.1875350618434,0.0775117409754928
11.1908686539357,0.0388548180467393
11.194202246028,0.0867647566679384
11.1975358381204,-0.0632600249727795
11.2008694302127,0.00594179247490791
11.204203022305,-0.0139602983711114
11.2075366143974,-0.017274450654088
11.2108702064897,0.114539832082288
11.214203798582,0.044737460994511
11.2175373906743,-0.04641402883973
11.2208709827667,0.0119345681488574
11.224204574859,-0.0706102149956848
11.2275381669513,-0.00585954911843385
11.2308717590436,-0.0849900553681439
11.234205351136,0.0129957669588883
11.2375389432283,0.00767519694903815
11.2408725353206,-0.0120272661500371
